sample_entropy,shannon_entropy,rms,emg_activity,emg_mobility,emg_complexity,Label
1.458233876188457,0.5105621135668711,2.671491516839194e-07,3.10368893473943e-13,1.40116407256752,1.17586408006814,0
1.32393360590608,0.7828647894437399,2.935514219489419e-07,4.8178381744377314e-14,1.328075761969575,1.255336763932137,0
0.5627728846007469,0.8222278896264547,6.52502250226475e-06,1.9934498669361658e-11,1.35105332964351,1.24124341843888,1
1.708876634429412,0.8261852103503273,2.359848870982756e-07,3.438339121716256e-14,1.344074096057945,1.282408708559568,0
1.805137461875964,0.8301011684062496,1.14460364027222e-07,1.442817873307714e-14,1.375266657717891,1.248731042295958,1
1.102238377140669,0.534614744355157,5.424212223627944e-07,1.277644928508699e-12,1.474436459867279,1.164568289062774,0
1.747680548961288,0.7581364187622647,4.929425795610774e-07,5.488305439516599e-13,1.43412900787745,1.179958120213343,0
1.665890110105606,0.8271812926905483,1.228448703612648e-07,8.654751152318976e-15,1.34678191331509,1.279522285981892,0
1.316468565730728,0.7983563967881404,5.232898223302099e-07,1.9338075467118652e-13,1.381932008965893,1.218949379538395,0
1.293126168730265,0.776073257091475,2.381457845078153e-07,2.4447255116242123e-14,1.343905662013304,1.276529803241131,1
1.488138930040436,0.8056893989451024,5.630777288305091e-07,2.021725565546443e-13,1.308503312438003,1.335483770036038,1
0.5591430416805524,0.8036228879173533,9.770152381894505e-07,1.004312031135218e-12,1.378373368805308,1.226342917043973,0
1.713756644027156,0.8247155919549185,1.299362462582704e-07,1.1083396072552132e-14,1.394772105452119,1.217097115634102,0
0.6652896288917975,0.8589441020713414,4.312768501456085e-06,2.158437014147113e-11,1.407362272509032,1.198905028486344,1
1.577989425706939,0.8132353897553741,1.301934082013914e-07,8.490887381575221e-15,1.354421175869813,1.254740210025012,1
1.030248286315639,0.7613964234795192,5.424890703937363e-07,1.0778515568799211e-13,1.316517821391576,1.273623245195055,1
0.5666848256606538,0.7234792673261341,1.176909337439292e-06,3.796442620797985e-12,1.482343740883682,1.154130918664319,1
1.61195255273927,0.8212981536313047,2.717569482429642e-07,3.895877232781061e-14,1.383909477702587,1.214577486573592,1
1.081935725190967,0.7965097128440708,3.880899694962758e-07,5.823145167033005e-14,1.41746750182648,1.205523161932933,0
1.852719678354598,0.8081932757792067,4.609789604075747e-07,4.060428620498504e-13,1.45718472434481,1.173364456262221,0
1.880471565121933,0.8270128415201778,1.308116184643742e-07,1.9001387363035632e-14,1.354068582957431,1.305809043524718,0
0.5703386061128362,0.7778968548962598,1.858387503664701e-06,5.7257268428044805e-12,1.370401064982107,1.197005494548556,1
1.334863417127794,0.8172822050676046,4.42592754971097e-07,1.03840979620598e-13,1.430700151794535,1.190369562488098,1
1.595178450038393,0.8274049508310055,2.081122174628473e-07,6.591068880594109e-14,1.289504669267765,1.600614945177626,0
1.398186225527378,0.8257285271360713,3.093700263841701e-07,6.142887648247606e-14,1.346245395348086,1.28349688248455,0
1.214545160728516,0.7741491268033602,3.362504460179698e-07,5.0913548410849304e-14,1.292274584385629,1.309141893110743,0
0.3006268760320266,0.8011191613728835,3.591250638923507e-06,5.914025553249012e-12,1.348799902564501,1.255497774008768,1
1.527752946195502,0.7746559016108806,2.148481196539695e-07,4.801942910693828e-14,1.4002453280103,1.247834451718657,0
0.5516798505625256,0.8281654614345711,8.19025261253053e-07,5.904991046284722e-13,1.460874993159121,1.172945494656234,0
1.595275269522781,0.8269920160494111,1.940960332358944e-07,1.8833965072852462e-14,1.360544478488005,1.225248697040992,1
1.441377256404581,0.800349303034244,4.043098045607573e-07,8.04066654946099e-14,1.318605649101869,1.256693412475022,1
0.7289330355636106,0.7698929926273259,1.014029595646861e-06,2.6248878383772397e-12,1.425691926898166,1.199249880685109,0
1.139297905111931,0.7781992198144105,4.422089722464348e-07,8.362455274045548e-14,1.367500680484012,1.241638049330845,1
0.7819131564200428,0.7762862600378961,4.433131098723762e-07,7.481698126950087e-14,1.331048938563342,1.368327987197878,0
1.07788731169438,0.8069673894556098,5.457513068439998e-07,1.736518605608445e-13,1.448248862512338,1.170466107404142,1
1.734084799511974,0.8316703330237635,1.588551038243788e-07,1.4263742205093e-14,1.330842860141503,1.274777410909274,0
1.487583555029402,0.8224836621360168,2.335082652932557e-07,5.2941877576836945e-14,1.382206634959565,1.217834687397713,1
1.100100795545534,0.4507298891299732,6.606283776820209e-07,2.175134949575134e-12,1.451617668723274,1.168522529651426,0
1.689461606807833,0.8283416125196567,1.338042063165267e-07,1.552221455505347e-14,1.380821334531331,1.210299638326283,0
1.748394807606866,0.8333930480846599,3.476548945807018e-07,1.320082264939447e-13,1.437805748532578,1.173274840902576,1
1.72673100459313,0.8210113812116555,1.439913946412137e-07,1.0976794307539611e-14,1.279689703713817,1.333285464175685,0
1.082890193035198,0.7798502855131885,8.235317384263669e-07,2.399470157786278e-13,1.371400066881379,1.227112298530866,0
1.663357017633116,0.8286588788767404,1.87212082770428e-07,6.263999618070815e-14,1.317945833686172,1.478171991506372,0
1.792408454587221,0.77963678334889,4.259098845968588e-07,3.8036015436788153e-13,1.430821403266346,1.180747130274308,0
1.162175889995253,0.8046325331104066,8.375474616236911e-07,3.0206248509925463e-13,1.40957750169687,1.227680804333021,1
1.854905608128394,0.8372085390031342,4.098237505759572e-07,2.615163273746616e-13,1.365753278126915,1.247545946805058,0
1.702151427647939,0.7924121060096355,2.596459553800602e-07,1.1221739575528321e-13,1.396570017657705,1.206269643942085,0
1.780271347087202,0.8168153296651933,2.620764503884025e-07,5.293275886843489e-14,1.318731421350317,1.345213884545765,1
1.260105272062935,0.831682759259545,1.635931041254425e-06,2.977257830717004e-12,1.395259858039512,1.197949312432535,0
1.733973774004963,0.8369128318626065,4.46444487109113e-07,1.675053421622668e-13,1.403607310140024,1.18645002301187,0
1.687099962512534,0.6979445530776486,2.962919815083507e-07,2.635290102730839e-13,1.402978470175647,1.188064084408262,1
1.849563445331777,0.8355064543533618,1.196261076560746e-07,1.0231372152133e-14,1.392894030945767,1.227561771173085,0
0.2858739543397619,0.838440698326593,2.541765434862535e-06,3.541119110046111e-12,1.474260493092528,1.156170492771306,0
1.593578266802143,0.8218489828560324,3.382050414646846e-07,8.376478927035897e-14,1.395368346523584,1.213762393084193,1
0.3379814733202782,0.535730527850501,2.984537078059312e-06,3.9333770095402055e-11,1.467986481569812,1.156651876335488,0
1.464630957384272,0.8439016673031324,1.612852038790318e-07,5.01009204371878e-14,1.405953388757287,1.206870704845554,0
1.156258149445448,0.7908255998088729,4.223403255577228e-07,6.631135515116939e-14,1.305454803602501,1.257321089354212,0
1.798648555844495,0.8221828171648573,2.061484504336265e-07,3.551946186520618e-14,1.338335664570308,1.288719165297673,0
0.7263078339833572,0.8225477058253314,2.668985300071951e-06,3.422267528919218e-12,1.458832361045811,1.149371801950896,1
1.185283257072295,0.8075169829557379,4.291790859456698e-07,7.873971002439562e-14,1.358904661433952,1.225349035899759,1
1.275187966295824,0.8483560762695763,5.215580950047e-07,3.136537070880821e-13,1.384952815403714,1.242581066416416,1
1.139956914665049,0.792600553130481,8.530957555103012e-07,2.750518990262421e-13,1.286929181273486,1.276013877116916,1
1.634700634920717,0.8184035384042716,1.571286457311679e-07,1.2364082234477e-14,1.333268471834596,1.259965863652217,0
0.5086951477068762,0.802395171168036,1.081490376512959e-06,4.542225478640511e-13,1.45477567438839,1.177684164013194,1
1.36988379557828,0.7705604401823477,8.950574793625645e-07,3.126067198569746e-12,1.382898277050761,1.26792286323616,1
0.9972441030515315,0.4231074665886677,1.088591100591331e-06,5.691294709562948e-12,1.459945140666458,1.157609267224751,1
1.130817704804883,0.5776405549676029,5.660162169482682e-07,1.401109112825704e-12,1.432983188444488,1.206442998283221,0
1.544367369149085,0.8221237446036952,2.022442959990789e-07,1.88419940571473e-14,1.330072056354551,1.27062736495223,1
1.537934272533711,0.8114661876758521,1.025141183484572e-07,4.552647969359915e-15,1.195447038720268,1.468497017796475,0
1.625589660724978,0.7923177130337706,9.096606104988536e-07,1.9268415347575578e-12,1.420875163547475,1.199288754891178,0
1.77751892096962,0.7844555287011344,4.404237080365233e-07,3.862978868635524e-13,1.42535776409282,1.178476473306797,0
1.766714915793007,0.8309959267388153,1.582919511707861e-07,1.9455953140145292e-14,1.365660697047423,1.236130396007856,1
1.532592294706955,0.7051582439314825,2.313357457549903e-07,1.49531974407858e-13,1.49896211432525,1.143659448311776,0
1.309571059381158,0.7741203797600414,2.276587237218721e-07,2.07189318033194e-14,1.304203553123102,1.27429298236996,0
0.9405064483204564,0.8007314911368569,6.569339453169088e-07,7.18151179854003e-13,1.448328897818751,1.177955891965184,1
0.1571909989540022,0.834995416658666,1.313177098978464e-05,1.0937930678500529e-10,1.411194617958637,1.202818864218863,1
1.179388347128236,0.7874667826329951,1.011935715419743e-06,4.091492263294439e-13,1.373720188359219,1.231130474568847,0
1.339903657671867,0.5893223233619529,5.602256163683241e-07,1.369747037079075e-12,1.43867792570623,1.184605421959009,1
1.37633527521647,0.7694664397910439,5.02018146804096e-07,6.241168017306349e-13,1.372823339306616,1.242448950455355,1
1.649358230692269,0.823552511658228,3.790654815817118e-07,9.288989546560852e-14,1.345783032673684,1.277517746768536,1
0.8044684780141306,0.6447132905058328,1.29472458162102e-06,5.859135259996584e-12,1.57561509762451,1.097909224617786,0
1.71037143988286,0.8232992313177576,1.459936373435282e-07,1.2499439633825111e-14,1.430071335608533,1.186159368531811,0
0.6044917644183703,0.7975751208296661,1.12084466005653e-06,6.334298020276583e-13,1.430367216522963,1.180029352780915,0
1.340367947922799,0.7953572981945448,3.268683027201915e-07,1.675980016901802e-13,1.406381216982638,1.189918292220393,0
1.618500077668114,0.8231051409115248,1.117404599062673e-07,6.156830785245542e-15,1.295722973373712,1.344036084831203,0
1.752864637646359,0.7037007152151188,1.941529445253424e-07,1.151162265656373e-13,1.384663452298875,1.193576038973939,0
1.073431810562595,0.8101107891281308,1.268593389497074e-06,9.624752224994258e-13,1.437544596705722,1.190772670863603,1
1.782520880226817,0.7992717084679738,3.760318425383012e-07,2.593496473436845e-13,1.375222260321808,1.215466274618302,1
0.5638809517459349,0.8422641149150759,2.576603398664676e-06,8.74472134196548e-12,1.425976536133934,1.184364355191078,1
1.387421008457654,0.8005973043517252,2.74540414364421e-07,3.0938783952088145e-14,1.346732699437567,1.273235651041224,1
1.635232773993413,0.8139279772451442,1.588792217398874e-07,1.3052894976084411e-14,1.32023268785327,1.330478600245968,0
1.09743714254232,0.776564550690492,8.699246003313077e-07,2.7075768343494223e-13,1.248560097754402,1.268524625743882,1
1.383017186731206,0.5603802804094875,2.041617988901727e-07,1.639558481118635e-13,1.485466546152066,1.159275952805481,0
1.153193351286749,0.7722391628956073,8.821819379720704e-07,2.774030836246788e-13,1.369316844381303,1.235431083607935,0
1.381198218517881,0.7945839089540269,1.270050097369546e-06,1.087329022922489e-12,1.369003061122768,1.229895214984937,1
1.065160475694956,0.7931250013663089,3.032393696794411e-07,3.5441237401775804e-14,1.288091319519809,1.285726757040578,0
1.855568274682762,0.8266771873699347,1.777093612057029e-07,2.937925414857084e-14,1.357282789661834,1.231971448422454,0
1.220832266330989,0.7986429896134991,7.447893764762369e-07,4.455016965119923e-13,1.237864458739798,1.50072567224276,0
1.168565398397261,0.4447206598151187,8.936393816599951e-07,3.614305364600899e-12,1.417851906102489,1.177308424540379,1
1.590123048640646,0.8288176746065409,1.55389850603763e-07,1.222092555999162e-14,1.331978633183182,1.264514244883846,0
1.850250737594936,0.8334596194853569,1.215832429189749e-07,1.0563065155517972e-14,1.332118023168437,1.291044002752713,0
0.9984533264540916,0.7155432477178438,1.474142783529043e-06,5.847542311643278e-12,1.432456159301735,1.18286817860825,1
1.053561636615374,0.7410094351053118,4.00382222742269e-07,5.869362043148123e-14,1.212471787108565,1.429095792060885,1
1.700370326182563,0.7042012303995606,2.782309688568371e-07,2.0312659062050992e-13,1.407805048520714,1.17576167429866,1
1.798644501043894,0.8176560732847508,2.775083093177202e-07,1.14234725874181e-13,1.400000994248455,1.189460903484865,1
0.9956139084096703,0.626758633194423,9.403104948510004e-07,5.64699122693026e-13,1.387758037220357,1.143930687075586,1
1.144946094792392,0.8340373281897191,4.064544966595149e-07,1.550528959777846e-13,1.387916189699176,1.215086392616805,1
1.160020936882459,0.8325537777083268,2.649203624367382e-07,4.6406215554230985e-14,1.318490863890944,1.267855661102058,1
1.840964989689761,0.8148376784191902,1.229681677318925e-07,1.1038222843691692e-14,1.268035308890239,1.3546546891605,1
0.4133273514978184,0.4805846677836178,1.651210528105631e-06,1.245662750258086e-11,1.533172357144046,1.139333445711695,1
1.81873476265628,0.8258863154946069,1.869491993348446e-07,4.1848882227184543e-14,1.330573989600257,1.350572661516113,0
1.703442225106846,0.8430699644201163,2.497591276469775e-07,3.9936396477487254e-14,1.405487930319781,1.20940789141824,1
1.066092841778923,0.8378842131395366,2.303863488168098e-07,2.778382440998349e-14,1.363184713288601,1.225388439999617,0
1.637024438306041,0.833564767584113,1.283004065351768e-07,1.1856249591011542e-14,1.383495648938411,1.2065635558437,0
1.418068974838509,0.8051483452503345,4.631875257371215e-07,1.0238883075690611e-13,1.332528780608388,1.257734808990632,1
0.9343973690385424,0.6556019888621578,8.977592273651199e-07,3.353572911774541e-12,1.344000915227146,1.233655733078454,1
1.820138195200316,0.832757450010965,1.218941371656102e-07,1.0742753122203561e-14,1.335532916686824,1.273307518118678,0
1.644549762931073,0.819107030571781,1.958697585449483e-07,1.970189278642424e-14,1.35043365198316,1.259903633739857,0
1.613986318980108,0.8279263305259266,2.641907034909022e-07,3.931640842894916e-14,1.391695337680557,1.212405673846333,1
1.504511111988768,0.7835841344013916,2.11592793750926e-07,2.0003453475756392e-14,1.311614069400125,1.320343877795209,1
1.609738442283549,0.8315800519583303,1.347693799345758e-07,1.530081311373783e-14,1.416960631423837,1.190719371162776,0
1.316075929421274,0.7933986474952379,5.15429946198134e-07,1.095024774827891e-13,1.332556090708232,1.264003279576704,1
0.514764459166091,0.8262048144925612,7.767891099380007e-07,3.457586967305769e-13,1.463030179243608,1.178956092553661,0
0.8675016834019696,0.7960080739670133,3.370470558759233e-07,1.741734544300096e-13,1.463238128066701,1.185487188826229,0
1.41405515846284,0.7876192081807422,2.427884357665241e-07,3.3941058781179884e-14,1.373744380214058,1.252372636705458,0
0.4680801034547225,0.8158970956749905,1.463518847368939e-06,1.258186681434335e-12,1.395634169058752,1.213730202595558,0
0.3524355543491006,0.829422509339832,7.981249370578048e-07,2.362602748128039e-13,1.41744681916868,1.223176064727319,0
1.424878579891484,0.8027621966877379,2.670167202896379e-07,4.6694263916038886e-14,1.352793881982865,1.253419044261103,0
1.080719968182447,0.7950257194195587,8.544186860759234e-07,3.0074353626145083e-13,1.330794206556855,1.28241284535396,1
1.516968156489694,0.8204911897977931,4.941285245300079e-07,1.1120110846130821e-13,1.420580836909462,1.208055759032596,1
1.128617555319741,0.7593646195107547,6.909731063315967e-07,1.794505800499381e-13,1.281696999273514,1.304351717172112,1
1.319808046539484,0.8419737857691407,3.402464487247027e-07,2.6411417130347243e-13,1.502398317370971,1.131024547060589,0
1.688492664102676,0.6958071771307536,2.972298815086984e-07,2.497336857344306e-13,1.436869234933359,1.169945991058252,1
1.275072618782678,0.8389762813799706,5.066206001714829e-07,3.765601414282059e-13,1.469082825941128,1.188310525016694,1
1.633152727783889,0.8133244248356296,1.430626910317891e-07,9.998886028981371e-15,1.335881360987849,1.249646557242494,0
1.318793290260491,0.7499735585553642,3.26097116611634e-07,1.6295098567733892e-13,1.437335801355335,1.205488584363768,0
1.778249541049987,0.803772917736959,4.977084396738093e-07,3.967311963944995e-13,1.396504633293394,1.205008756426187,0
1.59236397524228,0.8142782449219061,2.417560503779699e-07,3.049445186756626e-14,1.346675719756146,1.264161328865442,0
1.525801263556732,0.8205139246298054,3.109528350262702e-07,4.6010882233126336e-14,1.356234072434893,1.257168057438511,1
1.448163873583572,0.7947908763787309,3.668914397229283e-07,1.0701334207416861e-13,1.265324153422122,1.414209810451484,1
0.6873183965717691,0.8283131523568192,2.6682894115437e-06,1.116219479806834e-11,1.352088261532012,1.414659314402984,1
1.003043139449647,0.821429275777825,4.100378919870114e-07,1.2195004538876341e-13,1.462396238847036,1.176222839296774,0
1.787535535383114,0.8309073675805625,2.290319961334434e-07,4.3543600407794304e-14,1.403531636637641,1.198545768757958,0
0.8518304317124179,0.8246047507926845,7.152811345044423e-07,2.961377222671797e-13,1.434386087242247,1.199369486398141,1
0.9141044239695686,0.7667654336541045,6.885263493249376e-07,1.660279288998775e-13,1.308405148763298,1.27611194982077,0
1.488455370029954,0.8179370424351183,2.120254611186567e-07,2.047822056610228e-14,1.32617966994352,1.283608229072641,1
1.649489839800812,0.8248807024642114,2.008943307389559e-07,2.156668668179108e-14,1.369047959169515,1.21961181780052,0
1.754381920135455,0.8307847744670772,1.418970132728309e-07,1.6607147536674952e-14,1.345770121733466,1.250983530561438,0
0.9074115932097482,0.7871521403109369,1.384452080904088e-06,1.324178254147125e-12,1.420744626854864,1.211027754262633,0
1.313218638799676,0.5619228608592927,5.16457258390271e-07,1.162740050121699e-12,1.415076860463125,1.195844689993903,1
1.139166399838619,0.7840137652850714,7.373858006791186e-07,2.515943915127641e-13,1.397121304923888,1.234317839598568,0
0.7311593703203383,0.855232312119249,4.461464766857611e-07,2.5040333508101423e-13,1.507940718510938,1.146242421204109,0
1.754779713231978,0.8244926788655265,5.653296173823919e-07,3.300087581950194e-13,1.364113701412666,1.242321477781348,0
1.023313510175644,0.6777830725289327,2.678318904499205e-07,2.343876490486412e-13,1.42954653877068,1.23351767978161,0
1.857220986677682,0.8372102039957592,1.111084758862512e-07,1.003612552149634e-14,1.442829975218248,1.183749475829303,0
0.996443538818768,0.7847298550310705,2.71265711305598e-07,4.9612096684898035e-14,1.423613700843411,1.203550784890957,0
1.047731530319404,0.7488500000186915,3.558894994045641e-07,4.583321818668082e-14,1.269322438306701,1.334794142345079,1
1.641785860057042,0.8230389469719885,2.676198181516986e-07,5.768654737930414e-14,1.349719233201821,1.242056821126696,0
1.385003841873857,0.7717159709446134,2.041594979996698e-07,1.7494743438698813e-14,1.302869851167465,1.308027428456692,0
1.506372118502048,0.7988301968981247,1.733746769755323e-07,1.590500267187356e-14,1.338822342595177,1.291028458019208,1
0.7048714470340682,0.8244376325147693,4.474537452547077e-07,9.634181228605429e-14,1.386893374719463,1.22000397402841,1
1.422263272649098,0.7757317355104828,9.053530402367772e-07,1.839339198992604e-12,1.447417639474844,1.184009085723064,1
1.713080528678639,0.8332370702772233,1.785655849758154e-07,2.4823604691374983e-14,1.394537292819068,1.21305582194596,0
1.085468866036508,0.7289356867049763,6.624442423352563e-07,1.227525941263121e-12,1.48961416067401,1.155183514028243,1
1.31957977933183,0.7925624875988709,6.705113745004978e-07,2.142917384607748e-13,1.408529159522643,1.196593025276927,1
0.7863729546994799,0.8374689062683802,5.281794754234459e-07,2.40720305116718e-13,1.363426798273362,1.238073061489048,0
1.584977290359338,0.845682961026717,1.471584494575176e-07,1.4780497123751362e-14,1.396142716654971,1.21037690288643,0
1.431199036677296,0.803104916829977,3.226293386030455e-07,5.377958494075497e-14,1.372456935685283,1.224844234833722,1
1.778975258404433,0.7678334028225461,4.121236296324992e-07,4.162865713316805e-13,1.4303456334519,1.175448452834033,1
1.018025206991161,0.7645147912559331,6.00946563239743e-07,2.640157896499274e-13,1.407682226336257,1.189244543573237,0
1.635451082035992,0.7267422886356766,4.195930630736827e-07,6.154801274424505e-13,1.430728129923837,1.192512572249399,1
0.7788824090933855,0.8086526212726929,6.240011078145191e-07,3.310805475429904e-13,1.426191736770666,1.207960097253723,0
0.1668059576536023,0.8116360260637064,3.524433250628152e-06,6.77590893175883e-12,1.509262254653684,1.140933815186847,0
1.709296125394803,0.7220718392994092,4.122701345954696e-07,4.716453742289026e-13,1.390689009098693,1.199590538862728,1
1.750499720613741,0.831240886343502,1.622037447571379e-07,1.83400745188402e-14,1.367046889579558,1.24482901973748,0
1.669132387258262,0.8371119865750046,2.20450286545301e-07,2.871891631919244e-14,1.387138120828215,1.228787640961307,1
1.053137842429651,0.7997048908660089,1.059939104239223e-06,4.3259419399163284e-13,1.375295972466309,1.217250928447134,1
1.743739964133336,0.8327972135399277,1.37249228091747e-07,1.149379307348136e-14,1.355361076305281,1.241247361248121,0
1.031109136281295,0.8206268405648454,4.244634538202466e-07,1.144274879238011e-13,1.401455556096947,1.198771386727142,1
1.087419467034519,0.7832948338972622,2.865394170976044e-07,3.1370225990586245e-14,1.32559764178566,1.247853757883054,0
1.507196133988929,0.8234204217754518,1.235253717298422e-07,7.473980027183741e-15,1.290956403839197,1.345137579711537,0
1.120011669026553,0.788608361945341,9.085438897877676e-07,2.963158095993086e-13,1.313662157847862,1.221298205128773,1
0.7432233633761114,0.7006987230579791,4.18724224455752e-06,5.51680980816216e-11,1.464980962444137,1.170625435771306,1
1.607298034872828,0.6747815443033288,7.234718635411013e-07,1.663654112916337e-12,1.419943283080212,1.191769981474434,1
1.294356368464515,0.8014206824926057,2.970351058695234e-07,3.8639980334791354e-14,1.383135626574579,1.242662891267802,0
0.877383542868197,0.8406039550525798,1.238395446442754e-06,9.833294551352977e-13,1.410937095117903,1.193598658212188,1
0.3000136100678481,0.8388706268665391,3.335445573377808e-06,5.408480875170835e-12,1.436391108323641,1.172516444235361,0
1.750268242626607,0.8408410110970304,4.270942761388361e-07,1.40648146983454e-13,1.403646639777942,1.199103727419977,1
1.082488149215926,0.4503519823331457,5.356372525233853e-07,1.313360575480235e-12,1.432525164881323,1.174019634097537,1
0.9686238882461125,0.7905079624459734,1.21804960638888e-06,6.160672373722641e-13,1.444707097859387,1.185125847801081,0
0.6455462892189846,0.8369459060564849,1.589954400570356e-05,2.952252836333808e-10,1.398849251085329,1.204491010121669,1
1.760420651295464,0.8313521073658697,1.049320783216027e-07,6.131828598889297e-15,1.378828839341472,1.256016841747826,1
1.870966536341609,0.8303779704419987,9.09660381633365e-08,7.095679278557245e-15,1.448419216736986,1.185856892582245,0
1.700371172298503,0.8014177313767569,2.36651421514681e-07,4.7174185686891855e-14,1.332060208383665,1.273331489746346,0
1.644268513524606,0.8267927983011177,1.44299159780279e-07,1.103293639987446e-14,1.372892649609428,1.255485962595566,0
0.5548443411184414,0.7856117274131644,1.008813805063669e-06,3.61440536606551e-13,1.344888080991184,1.219170610758207,1
1.810293443225805,0.8257893303423761,1.171296641790884e-07,9.945574808235655e-15,1.342429940301834,1.276066770709838,0
1.698864548198595,0.8408008159785675,4.584502415573379e-07,1.261580921822766e-13,1.390005087903239,1.232959078658663,0
1.087996807956335,0.8067365183858598,3.319026890924181e-07,7.131305983490261e-14,1.383304980510627,1.18932533124542,1
1.773103239623312,0.8272121092874603,1.191526710983439e-07,9.654080613021668e-15,1.376133413653754,1.220981091426416,0
0.6858522616818182,0.7943942013470469,8.743676928777567e-07,3.7154373593345244e-13,1.463716530491886,1.170320810138908,1
1.41220577488563,0.7971751849810836,2.129376272717222e-07,2.3462585276843843e-14,1.387426245023112,1.231210757815669,1
1.124334221526661,0.7944739402254937,7.500475021809314e-07,2.206754763868178e-13,1.380198856024964,1.200170482410266,1
0.96652299729886,0.6438223641752687,2.821638758625774e-06,2.83501853920952e-11,1.51309270518584,1.152909322479521,1
0.6263625261672948,0.8105585784545294,5.781266344573302e-07,3.933095457316244e-13,1.444303710152166,1.192366990598608,1
1.610019954908998,0.8201440505416648,1.978827676483232e-07,2.1127233200931793e-14,1.309387574899388,1.278646831074835,0
1.205274418785303,0.786029484626361,2.621505587372161e-07,3.23188519663908e-14,1.304451125056925,1.324041587417355,0
1.556144342953603,0.8318068264273348,3.149257490753764e-07,1.7298364876352952e-13,1.403388212936833,1.239970871443768,1
0.9786484553072938,0.8195915801701114,1.001695109616553e-06,1.1315611117904599e-12,1.469306130024703,1.169131360804646,1
1.72425459219648,0.832896786416403,2.373845718827632e-07,3.838002483960116e-14,1.35238333868486,1.277653160424574,1
0.825580669801521,0.8139487769157455,1.517352740479474e-06,1.076503774356097e-12,1.414321764630189,1.186383282726488,1
1.232315973894164,0.8300379950849991,5.867320830749974e-07,2.913550842463013e-13,1.393701579173263,1.20557507300444,0
1.849186032119228,0.8253659202175686,1.502494039875392e-07,1.7611402613739622e-14,1.36325870941381,1.214552127628522,0
0.6206217234022694,0.8095352431012534,8.808572890400594e-07,4.729389908716257e-13,1.456042026291895,1.179430299498757,0
1.594712309740172,0.804500966743137,2.205308996070558e-07,3.926923545550086e-14,1.259968981260099,1.446189482712837,0
1.622072817497168,0.828433282420682,4.109670181862612e-07,9.718206908023539e-14,1.367654071340975,1.246822719374304,1
1.067349418556389,0.7897291231448957,1.099761985690256e-06,4.404723329416448e-13,1.373870982803721,1.217615822963586,1
0.3050352069340163,0.8209342321952139,6.25146901638142e-06,1.451948203430173e-11,1.3268236402222,1.231167240265151,1
1.528093296360331,0.8137577974723742,2.40250782656855e-07,2.9071983311141615e-14,1.296136826151601,1.334932580842964,0
1.245560594892354,0.7858648647241999,3.063701853946072e-07,3.516365507283021e-14,1.266728547561434,1.295725595254121,0
1.528263941228787,0.6139177903693663,2.180552321896491e-07,1.52272759195968e-13,1.407205207691158,1.161576913296483,0
1.475831050692628,0.802345918270371,1.747485045474198e-07,1.857167298212347e-14,1.309030801904793,1.319988418274733,0
0.8889849097022845,0.8639763673640061,1.144001164416498e-06,1.295389199624699e-12,1.49473452719736,1.159906068080493,1
1.715303816551455,0.8037191726877505,6.345332896086026e-07,4.397631027428063e-13,1.363924922648403,1.235297322454069,0
1.062003299689731,0.8261237102222754,5.173080917624956e-07,3.755594463768083e-13,1.519988257145665,1.155113955634808,1
1.609660652025923,0.8168251182679953,4.302098086464987e-07,1.1011286992257951e-13,1.3214361937796,1.280459237762228,1
1.474724255287544,0.8284972044260149,1.78231955720851e-07,1.7059238632309433e-14,1.315940191294624,1.360332037313443,0
0.9487442443555768,0.8129252950598045,2.580607504192564e-07,2.7090353804469863e-14,1.389564360737553,1.224300122347832,1
1.349667157873536,0.7842518923334281,1.622697562055544e-07,1.134111367215492e-14,1.255051671284468,1.366321710949933,1
1.829094209193755,0.8279499616925907,1.464616031204803e-07,1.484200281102916e-14,1.361098539836064,1.234316005228475,1
0.8458881840911763,0.6616713180183604,1.791719976215993e-06,9.519770014136267e-12,1.414896422703281,1.178458652721884,0
1.72539412954718,0.8256579551049055,3.157836759333458e-07,1.213957164199403e-13,1.388771829691022,1.212470871857401,1
1.172540487380666,0.8161309776173316,9.97843265247456e-07,1.332740180657919e-12,1.377032802424054,1.232032397288922,1
1.085274295733291,0.8317136375699239,2.386773065156703e-07,4.2171369922573856e-14,1.444175689452778,1.165103477194699,1
1.189420077490892,0.8007045084841171,5.440017423183913e-07,1.7484675382672452e-13,1.418380248893466,1.203753555754106,1
0.3276271746764982,0.809556124276524,2.174175043769002e-06,4.0473074052504495e-12,1.397476971678399,1.196571585707112,1
1.081453140618491,0.7895717688299025,3.201446856726661e-07,4.8066922782999135e-14,1.268749873300295,1.410239799159975,0
0.7628740010247964,0.7848987637506458,5.536851274884625e-07,1.4252721087793442e-13,1.180529148658238,1.46549799353699,0
1.039607853710672,0.7784070245890796,4.23879844637506e-07,6.508412532088405e-14,1.221908598595365,1.374241860751634,1
1.040529628192967,0.7866162278882153,4.067721858706469e-07,6.191879847602571e-14,1.279827443310402,1.318457501792857,1
1.439277965114078,0.8226250277096363,2.956693322767053e-07,5.5094130681101846e-14,1.378961803819616,1.217318883208385,1
1.684435503603762,0.8222774404172356,2.72130502276824e-07,5.2076071549918255e-14,1.324857097064614,1.314575519291184,1
0.4800951820407434,0.8084889965382362,6.725463804524309e-06,1.77991771638745e-11,1.436449268291245,1.166798044325666,0
1.121163518943775,0.8138351563363453,1.675274603790828e-06,5.109538445485086e-12,1.407095334838899,1.198635562874091,1
1.869184285762146,0.836301051691086,1.024901785055475e-07,1.026749850290745e-14,1.436450769039763,1.179390307876798,0
1.248559295369407,0.7588379444704086,2.190586306545311e-07,1.920719835635366e-14,1.272405426088407,1.326048733995316,1
0.6292968077938785,0.8181736770211955,1.620813281909109e-06,1.592253824798514e-12,1.439789214669395,1.178391828174581,0
1.697923623588214,0.8410877598538058,2.977301479400704e-07,5.4519808647602726e-14,1.369743750317403,1.259232159034732,1
1.327342172165759,0.8080460920697622,2.172319348904285e-07,6.100365628492616e-14,1.414657899224097,1.200874343661474,0
1.120086098399485,0.784003877874302,9.952335093299705e-07,3.59829369914359e-13,1.320075399137552,1.299660456590815,1
1.814357811237281,0.8322692558883197,4.151004667933069e-07,2.705893009099907e-13,1.426059954999688,1.186618903366208,0
1.709107440771652,0.8222334378907595,5.078920084519819e-07,1.5787108057379631e-13,1.303223396334667,1.348415646497088,0
0.4677969968700341,0.7976075557649526,9.81431698055016e-07,5.032822775941275e-13,1.409017485911018,1.223802597436868,1
1.637408853127273,0.8031354256952781,1.249687584595027e-07,8.453283831496182e-15,1.289228798738728,1.284954051129838,1
1.577016278005438,0.8015297241545797,1.488076092795976e-07,1.033638024782496e-14,1.349711075289929,1.234143743513293,1
1.676092152656563,0.8246707516394243,3.032092346494847e-07,8.026681442394758e-14,1.409800591426194,1.210317521864962,0
1.62622642057858,0.7871790744139824,3.989577979636119e-07,4.115470634880712e-13,1.43718512252076,1.192175381031621,1
1.186881242838699,0.7862407397726254,5.778160474232075e-07,1.311790758919502e-13,1.338411327548566,1.265731143500787,0
1.458062512165741,0.8004823035746466,2.230264348880336e-07,9.615314016830349e-14,1.490750895506942,1.141924985844804,0
1.748727024333898,0.7734387866086598,4.798821809308601e-07,5.002575019546019e-13,1.441941767190221,1.166569185186722,0
1.085981434240731,0.8082653190254566,1.100894334092076e-06,5.747120426451441e-13,1.44210005120246,1.178061928757216,1
1.421379509685258,0.7965640419949485,4.451995834923072e-07,1.1084695667737081e-13,1.296681609681102,1.350874816684548,0
1.271570270186331,0.7858943739889349,3.728935175244736e-07,5.64481254933284e-14,1.32086721116791,1.285599952655999,1
1.622408270317349,0.8310824777818473,2.717366848480721e-07,3.9135984773028254e-14,1.376440750485662,1.252296167244988,1
1.265788106618664,0.7903566601925248,6.879985470171121e-07,1.7773185694485741e-13,1.28800082662246,1.301902100680691,1
1.659375876176127,0.8280579446409881,1.19040451075306e-07,7.999511100187702e-15,1.319562267778311,1.325677166947381,0
1.415146808049833,0.5873193111299945,5.678967576858173e-07,1.24384238392164e-12,1.407389693372309,1.19145465026935,1
1.510089890152764,0.7786047128564593,4.994769125373131e-07,5.039274729498796e-13,1.350967866858411,1.250911168331322,1
1.752621777501268,0.8196057031526615,1.692398438930233e-07,1.869821464168177e-14,1.360301183005859,1.221126955411405,0
1.107026514729624,0.7264150949085239,2.805370427115447e-07,3.3797386449955944e-14,1.328802060882193,1.248067294872357,0
1.614035456242218,0.8576288275540724,9.599134304414364e-07,4.951437269122585e-13,1.443123072118327,1.175596419179574,0
1.557702765794752,0.8202249667568089,1.760738671319763e-07,1.727971735941592e-14,1.382525428540796,1.208226722210806,0
1.514944697656885,0.592559188175885,2.239222662755948e-07,1.9704663850031562e-13,1.415847720037266,1.195636367314488,0
1.79254833282443,0.8157330554709309,1.174037239334677e-07,8.826518222008002e-15,1.321291114484966,1.302452785979746,0
0.8524634095700602,0.8053820894687128,1.262006235762331e-06,8.93661650160085e-13,1.444934088085571,1.17897057014377,1
1.666465119895742,0.8302708841275803,1.197627802421265e-07,7.921069942252109e-15,1.355004507627067,1.283413861480051,0
1.548791054708005,0.8032292488252072,3.489708043054151e-07,6.37478721509179e-14,1.325146778882357,1.219974842804948,1
1.522304764926224,0.8056007053344841,2.217031505947158e-07,2.2905846073896713e-14,1.292644122291027,1.325302818827383,0
1.675395813668937,0.8258980841152839,1.136846757411977e-07,7.484777538745077e-15,1.379998846713492,1.209373795358734,0
0.7593471717489456,0.8076546829471092,8.937218915586811e-07,3.085648582193075e-13,1.168869893371074,1.357385097161397,1
1.666110219337938,0.8289823841982116,2.388744884715208e-07,1.043259820382178e-13,1.351143315469798,1.374768407370211,0
1.678940531010461,0.8334490216842101,1.528570944764713e-07,4.037801624437221e-14,1.316444486322848,1.415352060448313,0
1.365615795265297,0.7825610378360748,4.132690404571294e-07,8.138907366074856e-14,1.320674356117621,1.264171419623121,0
0.3217237462598644,0.6301566763363237,4.681584526441535e-06,8.901903585229676e-11,1.490187347706693,1.174863839443389,1
1.481012945799118,0.833279297855114,2.113807830706156e-07,2.863122890891316e-14,1.444415521979165,1.179165395446279,0
0.5419986369157197,0.8201600861196037,1.944454813503217e-06,2.850722226310623e-12,1.46273637538435,1.189681789473074,1
0.1582290297430147,0.5341134384015106,1.991848515907542e-06,1.676972940269445e-11,1.435484187608703,1.179067525651084,0
1.570634360015824,0.8095938825164076,1.594297524984677e-07,1.2530436946811031e-14,1.301752002004135,1.304642265715018,0
0.7499077652441968,0.7908380197437348,5.769459033288193e-07,4.588994010031672e-13,1.463112798975631,1.167082457750524,0
0.930424179452582,0.8365505327944758,2.848029828383492e-07,4.4395950627850023e-14,1.394496199867183,1.192063133169801,0
1.6772432963006,0.8068819335165085,3.835021360335305e-07,1.231540150708497e-13,1.362586088830947,1.203639755626474,1
0.1656188260107988,0.8214029027608626,2.697744380080857e-06,4.068884417965843e-12,1.38024450524653,1.234927572304441,0
1.330190198799061,0.7890416388938584,3.436286924031188e-07,7.936391003852335e-14,1.212088722342139,1.600843548124222,0
1.761745178317632,0.8196977553850101,2.075353946234078e-07,3.1457568922883294e-14,1.361367111134679,1.234317703429749,0
1.594369393682978,0.8079389974459952,3.404173024739067e-07,6.896943429007984e-14,1.324853025825802,1.358418780090242,0
1.655206338708613,0.827686872230572,2.362341849737491e-07,3.234588992192254e-14,1.369648247059136,1.226722588080322,1
1.387870062370887,0.8036996428574382,3.129132497278402e-07,4.2667053786172704e-14,1.319544178114421,1.293626426888976,0
1.446726846427098,0.8035305150616214,2.461768046852923e-07,2.6864298430493902e-14,1.376397435200366,1.218690473237266,1
1.073146883859973,0.7943150171404909,9.89118964339873e-07,5.281549171122858e-13,1.487189749418175,1.162498797822639,0
1.837139890203491,0.8334068633838512,2.029123939603573e-07,3.670573809591819e-14,1.397594118574028,1.224123900389091,0
1.73915407220504,0.8337571470458538,3.414628389900911e-07,9.935035930711011e-14,1.394624135550828,1.223039137637352,1
0.9929482130901348,0.8090751673584281,3.703928325477059e-07,5.4936895993728765e-14,1.375824256436681,1.248615395539547,0
1.256802024842988,0.804460070126322,5.613595410372256e-07,1.294252319591415e-13,1.354860180987097,1.219030215230648,0
1.063008520656195,0.8103577790085834,1.692477239114466e-06,3.275536531490517e-12,1.426092788496941,1.181563876171973,1
1.895774962027694,0.8441401509150074,5.362447069227001e-07,3.1206878260065953e-13,1.455794508832251,1.175740330280231,0
0.8807514503426077,0.6930611751987606,8.038051785028878e-07,2.005335284152373e-12,1.432260578608743,1.160239708614332,0
1.723626249273,0.7826625028272688,2.572419329758182e-07,1.2790267638443081e-13,1.397629250625265,1.194455244799287,1
0.4303737942037308,0.8008954045952479,1.131125898656235e-06,1.7103051876916299e-12,1.524066545505989,1.129904642788791,0
1.185848355301829,0.7921682885416417,6.012398942256913e-07,1.3172621628870642e-13,1.349526440140397,1.212945008664531,0
1.715885197496419,0.8364971483296453,3.633711555544329e-07,1.45857657635963e-13,1.436097955816637,1.170192892245642,1
1.293866659069951,0.5017621619588427,7.318795686359855e-07,2.23915457477813e-12,1.470838991240204,1.151259716142492,1
0.4822971628268266,0.8146628566273242,1.08197443010918e-06,2.099658603586442e-12,1.432685563769581,1.192815767672577,0
1.639286600013838,0.8210648620654117,1.007399321118242e-07,4.936742994919687e-15,1.370590067181521,1.251102357076324,1
1.773001215148203,0.829519052257941,1.08632002232181e-07,1.431599035770949e-14,1.428337325539615,1.192426732963319,1
0.3390931573992842,0.5685914086300624,3.03396847483775e-06,3.564455252787557e-11,1.481226789162412,1.148663562666091,0
1.18775201768706,0.7959242054058323,1.48487578955447e-06,1.063115012540342e-12,1.410402988078124,1.205803454921605,0
0.5491401397121465,0.7718128949247195,1.136143510669447e-06,4.718752883668285e-13,1.337570877358291,1.245409672491285,1
0.8347692522046286,0.4115235040969865,8.410955985374129e-07,3.335194242366903e-12,1.418489068573737,1.180598029538725,0
1.686998905273531,0.8358674044663237,2.842440996830711e-07,8.971665407265172e-14,1.422047069611253,1.19560853963754,1
1.145349142181339,0.8047549820226425,3.575448507151747e-07,3.359401838416451e-13,1.482315015673644,1.154022574892085,0
1.759178352174877,0.8272404278601833,1.590804182224474e-07,1.914309506695725e-14,1.372899880021137,1.229779647690094,0
1.384518692658634,0.7950893088286456,1.873489368594465e-07,1.4847675356902863e-14,1.316896280518737,1.291882293970857,1
0.9790129212958126,0.820416883762202,5.267502040960649e-07,1.651464339090084e-13,1.357507967290854,1.141975291850646,0
1.732826295093568,0.8302951229966753,1.439827753098356e-07,1.2985310533981171e-14,1.299283927065613,1.306110256508318,0
1.359657589402318,0.8083723207518954,3.17818444422052e-07,5.139827048376009e-14,1.368922299967898,1.228807079938824,0
0.9758728907406108,0.8003739048034945,7.102941684711744e-07,1.961958273480337e-13,1.422250076843214,1.219497517921742,1
0.7732027099533482,0.7955410032894024,6.214704139813701e-07,1.85971565446045e-13,1.369616386983792,1.24366199823841,0
1.81572220937185,0.8315330262218443,3.565968103362343e-07,1.364198189652055e-13,1.375872529271259,1.217802205293643,1
1.192460236826371,0.8228785662692654,2.972140046364085e-07,6.915473494454801e-14,1.483715229172147,1.151042194529949,1
1.279887024743273,0.7931687346317047,4.652185466697951e-07,1.0345151406885e-13,1.365009347574878,1.234719526791231,0
1.145641404663013,0.8323765530641951,3.904238142439976e-07,9.347525409844621e-14,1.380513890930043,1.202046731365763,1
1.556336669815826,0.7917727678543658,2.488524540395121e-07,3.294556277047532e-14,1.222800977227328,1.452531857909798,0
1.847970590420465,0.8323989203150598,1.331813588666515e-07,1.44605835910466e-14,1.337590847789216,1.255864493543242,0
0.9538416797906756,0.8115067940121979,3.137969454156808e-07,2.115939228934633e-13,1.473183391085634,1.179956326011476,0
0.9813652601999086,0.776443078465776,4.727593322261844e-07,8.173671176388537e-14,1.22323334898378,1.328816418212206,1
1.754938671941969,0.8278541721011318,4.260606600921272e-07,1.263207207079912e-13,1.323736763958608,1.314943198882328,1
1.810949848011505,0.8296737369722159,9.931266623547237e-08,6.395058780626129e-15,1.406845193127406,1.236623032815338,1
1.586935651303792,0.8259341332111865,3.448253510985721e-07,8.587890542288647e-14,1.338404515876824,1.227084468511648,1
1.79733826692594,0.8233525420369638,1.291175065247344e-07,1.001126762181928e-14,1.274089837011308,1.469326017011626,0
1.304319833409701,0.8134318058450977,2.488285522461232e-07,3.465884161834706e-14,1.370054971640913,1.214592803490798,0
0.5684157090451996,0.8392142369138619,1.024496407935032e-06,2.43874328417676e-12,1.322198899494193,1.496229884282299,1
1.278565922936921,0.6825030637151833,4.201753447347029e-07,4.786113526583101e-13,1.432035155043814,1.18744658874864,0
1.43457591871764,0.5805752838113338,2.430629664905567e-07,2.3741708634457797e-13,1.442322547376825,1.182808178251242,0
1.008293688444469,0.7676099736409066,4.875632988413451e-07,8.73600437451218e-14,1.201001422515711,1.339765327710767,0
1.428023928289598,0.8208632305175982,4.845907493889824e-07,5.279365126927141e-13,1.385839146075021,1.244491078703642,1
1.395131784382597,0.6010927404483281,5.212513338891425e-07,1.027746606895959e-12,1.401060305528917,1.187915911513444,1
0.7731406510795614,0.7951903165169936,7.73756095032101e-07,1.138353524502349e-12,1.467661618538908,1.171743807266925,1
1.522207114235795,0.8184354533665885,1.493378045123813e-07,1.0570860659304861e-14,1.343684905932425,1.26277407334181,0
1.745182555445851,0.8207089228942177,1.308006541948425e-07,1.174932178269574e-14,1.329344544126807,1.25619122484375,0
1.760909197244513,0.7303044104712757,2.566372893597086e-07,2.0359516832221461e-13,1.400794650599849,1.201955176542659,1
0.8132503998824323,0.8425846156037174,2.102645820932027e-06,3.713414607082642e-12,1.463905104103515,1.171084183384823,0
0.7571886579776079,0.7475784328603019,4.228325324546652e-07,7.840031867805997e-14,1.389666230698839,1.179930875733685,1
0.9423272127520098,0.812309544226871,7.348231958044207e-07,2.200820579596756e-13,1.407034635172419,1.208177911649129,1
0.8924246318295749,0.8308381591273732,1.154293962521897e-06,2.135140187618126e-12,1.45286389161481,1.175916539706902,1
1.435895565713773,0.8071330256954155,2.976021576225049e-07,1.090082230085207e-13,1.42949891781982,1.19423069940499,1
0.2349791942731205,0.7844989175213121,1.74482532639133e-06,1.157081589529323e-12,1.424351832441562,1.207012079303428,0
1.541578653520585,0.6913249480283709,4.684493485610198e-07,6.70954839432823e-13,1.391885678694918,1.197732446540332,1
1.657634146551031,0.8396345416199518,2.69407903593009e-07,4.0486401343891893e-14,1.414706769128583,1.190157457092047,1
1.119281545552881,0.8227996837014414,9.772410643465282e-07,7.416718161155195e-13,1.422658512427232,1.203737513841883,0
0.4866157664074971,0.7937606630659858,3.931907445147037e-06,5.641409497779168e-12,1.337204461494459,1.221177866029251,1
0.9981827920760464,0.7214415367481353,3.828610094111121e-07,4.001705725697311e-13,1.428004446159287,1.191302327644788,0
1.717734831478946,0.8069560838511342,2.090598117880303e-07,2.5770296463142362e-14,1.279457320756685,1.42007141286672,0
1.473855419163705,0.8241275057181334,1.886257673156303e-07,1.546546307492011e-14,1.397030235374148,1.232536298930415,1
1.223152996432985,0.7873370945092163,4.619919275539967e-07,8.401014852078278e-14,1.340516593777812,1.260062137865651,1
1.689408260518531,0.8343210112627205,2.669324549047441e-07,4.409475305088469e-14,1.388610875565518,1.198863277615167,1
0.8366048465945282,0.8395237778783861,1.720481292439514e-06,1.777955499829432e-12,1.423547129853322,1.198735850091264,0
1.263289106459883,0.7935774767698395,5.039358689235401e-07,1.344485862388567e-13,1.254469811154956,1.337981897883877,0
1.866806468652392,0.825587818025696,1.199625387798584e-07,1.106941283134391e-14,1.366327151248229,1.280743181231676,0
1.636805861739063,0.7938892830047671,1.182497935678352e-06,1.368797615686809e-12,1.399923060587114,1.203476792755626,1
1.539121921294686,0.8313409822310609,3.640851753620221e-07,7.03006356079116e-14,1.373754011786585,1.215287056301394,1
1.267110605717365,0.8280335539416828,1.614296312379544e-06,3.037320157984856e-12,1.46361153602098,1.168662591115765,1
1.695193817335471,0.8228564790318733,1.678614468297917e-07,2.449696087101784e-14,1.371276717352266,1.220690431791659,0
0.9234421937186386,0.8235493961495516,8.13172985805684e-07,3.8075236628088074e-13,1.397721772461847,1.229097279589138,1
1.691284078577276,0.8327514903253823,1.333997591252232e-07,9.955452711247168e-15,1.337915030573724,1.256947826897633,0
1.550024769849284,0.8051221499444409,1.61854116927044e-07,1.3392331998288331e-14,1.381742651256167,1.255391821259883,1
1.816771099634551,0.8380571965585562,1.75028594219161e-07,2.635929710339869e-14,1.370591400456023,1.287726700985285,0
1.093349590270809,0.7932070699333903,5.899566484751197e-07,1.9620967698622112e-13,1.354446568594886,1.265078988033443,0
0.463443471414199,0.8056330057336947,1.818260883065885e-06,2.779431715787329e-12,1.52235127242757,1.134394858867209,0
1.308684283762152,0.7785959894690253,3.863948181661893e-07,6.324822158129221e-14,1.292926635516874,1.335329567012954,0
1.609359064958868,0.8218858565247961,2.002194504494871e-07,2.0406972610750853e-14,1.375609252859616,1.223563399545449,0
1.542678588444058,0.8352872044539476,4.123446372861728e-07,1.497097409617989e-13,1.356048984621303,1.290498508369583,1
1.356101086598187,0.8075335154918009,4.030512705642908e-07,2.339559806742934e-13,1.408305583189509,1.220969713060322,0
0.9719524744826488,0.7329395096061734,7.85686990648827e-07,1.646619421713713e-12,1.322821709539374,1.268900992501473,1
1.322587609738556,0.7628089918147479,1.59609776142425e-07,1.089937162951664e-14,1.308569037950272,1.29632902370016,0
1.041007113760673,0.4159285512048495,9.463842524679096e-07,4.424901274957316e-12,1.468595313358158,1.150149813120532,1
0.5508082107501977,0.8367627729595889,5.25719590607305e-06,1.778984262072052e-11,1.322839886156878,1.227851206183227,1
1.654675780452055,0.6200754137105463,2.296986594041195e-07,1.9252983204432542e-13,1.391098529689675,1.1908641829323,0
1.068038303551105,0.8131725133471467,8.229118809773156e-07,5.46686189011234e-13,1.39018620380296,1.226061805528332,1
1.141092815299893,0.7800673281865624,2.697422361855618e-07,2.872134633438893e-14,1.311235954132943,1.247809598788709,0
1.17125593831831,0.7867931275003822,1.473435438375445e-06,5.195841162537434e-12,1.445722563221673,1.179948334483888,1
1.268177317993141,0.8045962352369709,4.789399480100602e-07,3.837785807675421e-13,1.383219101426655,1.192075907323615,1
1.212081799794517,0.8108584341408522,1.167195906798909e-06,1.828771754725616e-12,1.36181000961665,1.229819650171408,1
1.902066250892092,0.8195432453320917,1.430281340714311e-07,2.5941904432288732e-14,1.391628316010951,1.18935033037857,0
1.422272166754043,0.7442653691639795,3.690943964015876e-07,3.157925291435374e-13,1.406086011478498,1.21102461175293,0
1.683147376510606,0.8059559616785454,2.224994722199199e-07,3.765008907430413e-14,1.282402716860428,1.361553351258305,0
1.626657020778152,0.8248297932054086,1.449942012646268e-07,1.087262261728102e-14,1.356764671524095,1.225650554301458,0
1.62179177471628,0.7955030150215833,2.598326645096528e-07,3.2027865384646535e-14,1.219998226821507,1.589454559868122,0
1.61534031547964,0.8135060661811586,9.889137431843584e-07,7.250465083581046e-13,1.378160721305078,1.223973309697635,1
0.3153173288373117,0.8173992111913508,9.78788118328817e-07,6.250370185920499e-13,1.428873802236943,1.204264243807264,1
0.4560506276156077,0.7692380028916211,3.706503499782996e-06,3.286700888870648e-11,1.444775888170305,1.167816848901109,1
1.645268885719794,0.8342119933196542,2.031527654249155e-07,3.7893422655167314e-14,1.371258747604362,1.298228867380181,0
1.57971582490934,0.8090764432892954,4.436783235075406e-07,1.001354897249003e-13,1.404181045586767,1.202962333089437,1
0.6033184734058749,0.540201802795196,6.183088015423908e-07,1.678495906822532e-12,1.483533898729828,1.138522012972415,1
0.3171767169846191,0.6707020495603507,3.164429630602784e-06,3.4730714726713e-11,1.395291768814151,1.196326273963279,1
1.331757645325837,0.7073591087785881,4.00136105009225e-07,4.161420273770966e-13,1.464705825709042,1.178279563586311,0
0.5026303824452617,0.7528547574240659,5.98016219876593e-07,1.156650455042208e-12,1.517288449681943,1.140155042104205,0
1.277716707664783,0.7625062891846112,2.414717461800807e-07,2.4624332814625332e-14,1.310317513273573,1.284722777478897,1
1.607184332176827,0.6948613365082664,5.729961340475529e-07,9.976093532659492e-13,1.401778943826313,1.193964482023867,1
1.110399693682864,0.758356097395214,2.743978647384475e-07,2.9153487718025384e-14,1.282624350899006,1.329459460434225,1
1.728780509617854,0.836293575059069,1.740740725033884e-07,1.8228315126511383e-14,1.383616043304471,1.237971943692166,0
1.836522111874329,0.826015918304882,1.091216699174979e-07,1.285770466623535e-14,1.415620101099713,1.196984464782309,0
1.335212744086537,0.6960984977437684,4.758488365096188e-07,7.194311499512565e-13,1.40296159980495,1.205924318665672,1
0.5697148212155111,0.8064833159492171,1.681476278943137e-06,1.052909887460039e-12,1.416869212117995,1.203725676533438,1
1.680127992254279,0.8258507091189651,1.750209928206007e-07,2.77557984795293e-14,1.389651203572007,1.209258321326064,0
0.846347042243611,0.8102245818882716,7.967713134175745e-07,2.5802819540863383e-13,1.351674295261192,1.258376167233156,1
1.152436623997034,0.8133846738222891,1.104469387171962e-06,8.981789027399404e-13,1.406598094742362,1.215853093816646,0
1.47086329699545,0.813897832086387,1.238679789880146e-07,6.427784540676762e-15,1.277132203098551,1.333706777263435,0
1.480542007069979,0.8144252576777049,1.574068898008534e-07,1.0899270925790812e-14,1.317371068880789,1.287895261131324,0
1.812530648540104,0.811440208864101,1.277114404582843e-07,1.9007582597582932e-14,1.419948966891232,1.194227789151364,0
1.11814994111856,0.831492327826469,6.269765739115989e-07,3.443629883049674e-13,1.377844029031942,1.312118429364799,0
1.865579578925312,0.8314462791942916,9.675475637181145e-08,1.2740281895428511e-14,1.424541024096752,1.198319415731218,0
1.68454518235646,0.8187189720714726,2.729074072851333e-07,5.943911049418457e-14,1.387159109186163,1.216034511839793,1
1.844277503511502,0.8213170945044045,1.611617255425337e-07,2.9825429690668845e-14,1.350602857579236,1.247913779819295,0
1.549792808635098,0.8170504699752388,1.212211028525869e-07,6.823266727122494e-15,1.340435953079986,1.25895966936414,1
1.147369221966059,0.8127278471030723,2.397685509595449e-07,6.714834711113399e-14,1.433817799871271,1.209768274710356,0
1.688162037454352,0.8276115425635999,1.152773947031066e-07,7.602111909966147e-15,1.36812050270342,1.237697694265879,1
1.551523287874101,0.8328957817270306,2.206873244570639e-07,3.9111008603508385e-14,1.359636182430634,1.259082420844606,0
1.659730914676744,0.8031924730514929,2.353047700056463e-07,2.984545414083237e-14,1.255687195522551,1.367381955609633,0
1.276108753019727,0.8030205675687379,2.985741139360497e-07,3.5249072155193254e-14,1.344315191024932,1.257842492717592,1
1.225253656090965,0.7774497804233685,3.923105329255243e-07,3.919108427130792e-13,1.519268393436198,1.149949581854611,0
0.1721402458069982,0.7899359774243941,7.952331161132504e-06,2.4045626991323188e-11,1.445161359566837,1.156194369544979,1
0.351633395337668,0.6892646994660118,1.527986385777103e-06,8.889629582285346e-12,1.475471371270354,1.15688089022418,0
1.337619104999605,0.7701418046858801,2.55527255093425e-07,3.309722528092188e-14,1.29143414282388,1.365624099978656,0
1.516664272017565,0.6045182348131612,3.112254563029793e-07,3.356263368893896e-13,1.39800959006383,1.188183827059527,0
0.1352480273914403,0.801957718673967,6.838470298566686e-06,5.0408200195370786e-11,1.430093966533049,1.205939179508124,1
1.197427318042418,0.7605491899614563,5.644501167380195e-07,1.293536464670305e-13,1.293506615120734,1.287667041844643,1
1.447954619788538,0.8075153400649266,1.326499828975342e-07,7.669285173785376e-15,1.199537562914521,1.409808882307851,0
1.667220253409149,0.8460307085099238,2.95231026259018e-07,8.390068820850433e-14,1.35360957972531,1.265513832624975,1
0.7649809119394523,0.7911149520317052,9.00861603284678e-07,6.757781534775462e-13,1.363487015498709,1.247786580522006,0
1.527146746395763,0.8176664360398352,5.36172077225307e-07,1.72416865047231e-13,1.372259278764792,1.229104452238987,1
0.6664593670621036,0.821781068196347,1.885126892229727e-06,3.147615068503213e-12,1.361864611582263,1.216935664227903,1
1.901188076522843,0.8075728493998832,9.925554931732557e-08,1.520296939230194e-14,1.473515155667821,1.154418977505411,0
1.094909407406123,0.7984144994668783,2.652946209747565e-07,2.656083401008569e-14,1.312345825077661,1.279857669903764,0
1.457830757781777,0.7908137390285824,2.285621625047819e-07,2.692432089496142e-14,1.376931863444822,1.237064367673064,1
1.789357204804412,0.8296935245103313,1.330642447383684e-07,1.3756442283338472e-14,1.366117305826882,1.26072859941265,0
1.761887585362055,0.8044365380005555,6.387583297301853e-07,8.28014637191645e-13,1.362637720833611,1.337811261372031,1
0.0744392042385198,0.8213553763514857,4.486127425736812e-06,5.929083016233675e-11,1.326395670508145,1.328441983782048,1
1.130365515086533,0.7860805811281134,1.489528706415745e-06,7.688741803487292e-13,1.286747218509597,1.303805135862005,1
1.772768375452532,0.841095399553749,4.342336985385712e-07,3.00369358517797e-13,1.394077480641394,1.224944021576831,1
1.187151186645944,0.7969316532748919,6.728213780181604e-07,1.858794208752392e-13,1.30696998398222,1.298046205498562,0
1.143211042538609,0.8160997038932981,2.46951734976174e-07,5.956511310921878e-14,1.408972976077524,1.185442553833568,0
1.590948119994714,0.767886228960761,5.69222827609032e-07,7.809587896969142e-13,1.457779364676039,1.166737085906916,0
1.747996137866926,0.8228797644887168,1.132238292993443e-07,7.185429214126823e-15,1.34347707653237,1.272985056516745,1
1.137423102496426,0.8051271351662187,1.440642202594147e-06,3.131493613626263e-12,1.389716199110899,1.215637528164224,0
0.8587187408768705,0.7855540645952458,6.195954013165978e-07,1.498887664621816e-13,1.304558545111516,1.255891286269776,0
1.432708426666972,0.6705393212699994,5.31768192180845e-07,1.014574602887834e-12,1.421855975124637,1.174988250677726,0
1.126139860986579,0.8070577774890483,3.178310632583738e-07,4.022926354504299e-14,1.379821544548449,1.22720703817773,0
1.361263008676194,0.7665648732156362,2.592029632688252e-07,2.993062624589874e-14,1.306504827856283,1.331108397374065,0
1.180452871348777,0.7793596374645335,4.024378831311675e-07,6.28246222547738e-14,1.324459918069877,1.269987910425365,1
1.177015343819053,0.7723290323327888,6.454745154867258e-07,1.564272431450419e-13,1.287541205029062,1.302349686878501,1
1.869261846183347,0.8348485875970288,5.252910275551535e-07,3.3219882177473234e-13,1.465292171175061,1.175419916902094,0
1.453062391913225,0.8156576497379511,1.100100223606768e-07,4.965466238422892e-15,1.302190767909531,1.292847212292045,0
1.607230271477626,0.8293139008666336,1.133309208799246e-07,6.425210583088076e-15,1.317191499310666,1.360797103486288,0
0.9817560834228236,0.8018964596523348,1.134911767496598e-06,1.958103049022888e-12,1.372200429598961,1.22332046414524,1
1.452508397273241,0.8266330970053873,1.599812500612742e-07,1.6025388818493982e-14,1.400258787978704,1.185843637595837,1
1.912050592641238,0.8165137581066616,3.853274186453768e-07,2.449126905418202e-13,1.454637604766544,1.160672643235823,0
1.642428898380446,0.8268217556183479,1.410447228336239e-07,1.109128555879283e-14,1.349703747870818,1.234982898245417,0
1.169074402832635,0.7894963281625547,5.483327290146326e-07,1.255115689516496e-13,1.216066281786535,1.557855537033474,0
0.9287187792957856,0.8179368183139906,6.200543055842166e-07,1.515857139503665e-13,1.377839790673674,1.218643600027683,1
1.505899442440097,0.7946218220780016,1.090885273452661e-06,7.476428290235716e-13,1.404834369994233,1.216844289331702,1
1.378947556860504,0.8148705472154257,3.333270071007814e-07,6.034289229998339e-14,1.367202942292725,1.245873030552658,0
1.709158491870558,0.8191344230960939,1.572672007388152e-07,1.4565266566337032e-14,1.368514622149491,1.226044379156216,0
1.464959695538174,0.8107834515372944,2.1808968774433e-07,3.4440543427304924e-14,1.380097068236933,1.227382568270068,0
1.21037620471779,0.4610302794106745,7.045805326453526e-07,2.214524350869918e-12,1.458128014463322,1.150466499681988,1
1.077358799403653,0.8022356984397142,3.255268384444806e-07,3.8734392517326684e-14,1.364988009755151,1.2412357111085,0
0.2511834970596984,0.7785309741834328,2.368773767161748e-06,1.2479095224973639e-11,1.510538691261988,1.130295245378098,0
0.7661832887913583,0.7140722287033325,2.369743163825803e-06,1.538509087249995e-11,1.48480407386013,1.142260942876691,0
1.575358430834773,0.8263888273739856,1.283419773287674e-07,8.585647412341961e-15,1.278122072564145,1.341829855912504,0
1.727041818507969,0.8175301644543809,2.153228018621834e-07,4.396348513229697e-14,1.398190669112548,1.197795539769305,1
1.6375295955166,0.8070072094010636,2.543637282633604e-07,8.660667463916617e-14,1.396215366172354,1.192065525142245,1
0.9876466474817464,0.786126089571896,7.514202836865957e-07,2.731883498400972e-13,1.380185877053975,1.211738255063242,1
1.737263744678913,0.7264783568427229,5.072334048981304e-07,7.883430218665469e-13,1.466353005806607,1.149290951669369,0
1.61101905096789,0.8272033559620128,2.557791815116377e-07,3.4103569514062814e-14,1.363958359198878,1.258687937923893,1
0.2993711613607141,0.6158022113795268,3.207022110380066e-06,4.091443272326312e-11,1.457112284483849,1.176226321794382,1
1.648939209046312,0.8294930543042358,1.185167749625403e-07,7.765552882811752e-15,1.344098198011527,1.289074900726389,0
0.9932020899776092,0.6921782211272357,2.330599906888231e-06,1.501270800207518e-11,1.377294732788237,1.213930212359753,1
1.592376549346375,0.831397073899264,2.628432356055448e-07,3.4315152527440745e-14,1.384123412309521,1.232446040603423,1
1.193043816885825,0.7890558137546937,7.099055041199575e-07,1.89274896036865e-13,1.338478671874478,1.274345907752492,1
1.679201487569366,0.8062485769716107,1.31640683194323e-07,9.288182681353172e-15,1.301354456294794,1.295517201578488,1
1.837503535395843,0.8362533485962785,1.180917646676664e-07,1.0643578526774642e-14,1.332053270184054,1.269968348459892,0
1.280844041416159,0.7957254353128255,3.09350706281088e-07,3.6300845268260696e-14,1.355495535460636,1.248207620944817,1
1.177084108532235,0.7829977642998379,3.068289518967816e-07,3.521124345912567e-14,1.307579569646536,1.267156311929501,1
0.9309019210171272,0.8300979641332963,3.814165398916135e-07,1.071255067459556e-13,1.451852489046469,1.188933319021036,1
1.533521579829328,0.8078281991495344,1.459635469212697e-07,1.050857323353313e-14,1.364244510603611,1.239906760478081,1
0.4192853081830724,0.7631496230914208,1.474485651849526e-06,6.7580713327221366e-12,1.505801968419029,1.156625777805866,0
1.650142634544424,0.8234465027252108,1.142263660446563e-07,7.012986774040501e-15,1.322944134395801,1.338033877077055,0
1.045700856371378,0.8075492326196531,6.961456518993092e-07,1.991477620787897e-13,1.438043398007426,1.187068148581226,1
1.027412407351923,0.7808507741349006,5.838275012554218e-07,1.272002341142656e-13,1.366721605832178,1.239036968390416,1
1.100772747187797,0.8262675256033374,9.761864493784797e-07,6.714781426099433e-13,1.340266830127768,1.226674290092706,1
1.558527815950413,0.8008730384568424,2.828844967869485e-07,4.3088371770482414e-14,1.332126921703795,1.271646789032846,0
1.48286627357009,0.8295670639930549,1.742666229257084e-07,2.7986302068403902e-14,1.363426981043945,1.181888246248984,0
0.7738276204309249,0.4283099831138276,8.877519405060973e-07,3.5984673872519208e-12,1.416936306281788,1.188921477453438,0
0.3694231603168096,0.7844136766306844,7.181389055059089e-07,2.223348245672506e-12,1.406643911616412,1.285322682265295,0
1.027394889047979,0.8234184494384336,1.810868755157468e-06,5.056560618413345e-12,1.449234746759505,1.189649384177957,1
1.701033653676081,0.8125631788319647,2.473710003571071e-07,3.62870265673358e-14,1.345883842656146,1.24329031602513,1
1.635240536222882,0.8264921982247945,1.20589237546603e-07,7.581258784326651e-15,1.363314642221926,1.258144330074733,0
1.532068536973948,0.8035551327371578,1.653403064241805e-07,1.2651151231265881e-14,1.326117671861221,1.272225798748887,1
1.461574986200693,0.8079463323283759,2.159229971630817e-07,2.017090438125104e-14,1.345880770498827,1.22852650759827,1
0.9083205185932668,0.8395791275535066,4.840241811949982e-07,9.015077362722553e-14,1.344257483577817,1.253849514011797,1
1.145047552861906,0.5376488749268166,5.733735777708827e-07,1.950231957319972e-12,1.440884282887972,1.208210424318396,1
1.680555648262811,0.7966127587190757,1.661093220677291e-07,4.620042670845074e-14,1.3892546869621,1.199155718032024,1
1.117811889398637,0.644004652419687,1.346144625045801e-06,5.737260883083159e-12,1.401817619838822,1.200953141739714,1
0.4684952132333687,0.8252391277349661,6.334125535720827e-06,1.523623166490112e-11,1.458466483898145,1.168826142431905,0
1.144945978284749,0.8283624976727325,1.749602098016389e-06,2.447544347868475e-12,1.383787749431626,1.235008632389797,1
1.819192804382558,0.8293452459353733,1.21635275195116e-07,9.926131712974768e-15,1.298875905339608,1.312798347470848,0
1.739625915123724,0.8252574814621912,1.117250554833054e-07,7.113444823543075e-15,1.315889762537536,1.299338530222046,1
0.7319982822207369,0.6517557426773607,6.737208791235538e-07,1.293062755918232e-12,1.445908230998649,1.16965080532299,1
1.410436581311874,0.5730229114289731,5.611045803487073e-07,1.248337100551689e-12,1.471396708629192,1.151130915417699,1
1.003230220868558,0.6754438743777889,4.742998761559807e-07,6.728611250145345e-13,1.460547695220494,1.177408025625391,0
1.766955087003417,0.8248893427295652,3.128342487511262e-07,8.787302690709489e-14,1.307504488857226,1.43387308926727,1
1.516491648662227,0.8251816797613558,2.885849472729161e-07,5.468678230558584e-14,1.343314215652237,1.261809445561389,0
1.890728629557242,0.814406443770827,1.232151332556394e-07,1.695212410884086e-14,1.394823056215244,1.218403177442132,0
1.905612972932321,0.8309358419032566,1.024687579985139e-07,1.219626912949993e-14,1.465763796001668,1.163811667828698,0
1.749001520735803,0.8109219591247762,1.786405406863166e-07,2.7728410915231163e-14,1.37608797902734,1.209805575089506,0
1.63906037841896,0.8219401182486759,2.691302549284313e-07,4.0881683532330235e-14,1.314066842159745,1.323967639534687,1
1.083573461066984,0.4661876683207907,8.13534376636995e-07,2.946215825046463e-12,1.42159357000669,1.187731002044716,0
1.61463471912265,0.8127396365729498,2.18787219542291e-07,2.6414975233779653e-14,1.336730915221552,1.281504021093189,0
1.898765270038405,0.8276817572368459,1.044450573525354e-07,1.3162264482332162e-14,1.438200631647093,1.177721679209061,0
1.300703099334012,0.7977610375976533,3.31446517723796e-07,4.6591707400960595e-14,1.301363248449027,1.281165733815818,1
1.460306145621677,0.794977521937342,1.888607432698795e-07,1.7106129222268643e-14,1.362284613702084,1.277445764752658,1
1.51388506665232,0.8185069515402599,1.625081556164894e-07,3.0925157171391563e-14,1.454411233168112,1.191509176419049,0
1.471578033955526,0.617218127393971,7.548084787316644e-07,2.072739300867655e-12,1.477274892397592,1.145755337772967,1
0.990812046428898,0.8378259618469744,1.875737043383168e-06,2.850304830298055e-12,1.39670120118563,1.214222830461083,1
1.267661359687476,0.8047191781236318,3.522876087664159e-07,5.957548576914007e-14,1.366755576286081,1.234318326039491,1
1.038341587484671,0.7455876994253426,2.886653578569326e-07,3.147677293641918e-14,1.280849238244429,1.328430285282295,1
1.30712320498901,0.5469470493884161,2.854362162492939e-07,3.318509933923212e-13,1.452208413820399,1.16628289916085,0
1.816481690326208,0.8242087542693659,4.671303409737412e-07,3.4867439370075153e-13,1.436093853103066,1.184349820604396,0
1.552101105587339,0.8028208251806527,5.023885010728879e-07,1.7138878603840962e-13,1.35365034699083,1.275319985336469,1
0.3696623366895966,0.7750354075332496,1.174763005808065e-06,2.609575035593048e-12,1.48678185321124,1.156336362638141,1
1.707167465774935,0.8219785699028145,1.606930423142681e-07,1.5454252426877543e-14,1.352815061314153,1.262285146690749,1
1.490256459350085,0.8029809923408896,1.743014818954277e-07,1.4073419907436912e-14,1.327552220987628,1.304029886638568,1
1.436000400468826,0.821378474590957,1.238301008845182e-07,7.113785087148212e-15,1.331566318543025,1.239646623439781,0
0.9633153288999532,0.8071401042966135,3.072063044369478e-07,3.56756011053372e-14,1.369190209998136,1.23353310415058,0
1.768506235017567,0.8171503616254677,1.06280269803509e-07,7.046551251793866e-15,1.291037959023779,1.392971168905822,0
1.549914169576512,0.8099003692344929,4.810934358398941e-07,1.133567829378772e-13,1.354132070783826,1.242177013177916,1
1.105346790228206,0.81485410354341,2.143794129826971e-07,6.015344997245051e-14,1.459530561191739,1.171302235295169,1
0.9877250550573246,0.790643061111215,6.597679985463924e-07,1.857427285812665e-13,1.304902038756326,1.246019114526872,1
1.321970776548815,0.8273921745586498,4.088425939999547e-07,9.032595034148229e-14,1.409301083371406,1.201097272907191,1
1.074049103105845,0.504842321275524,6.113222136876513e-07,1.593415280816087e-12,1.361967596683914,1.235610047978658,0
1.867202898313598,0.8144917852851498,1.307190226388591e-07,2.6330647614359383e-14,1.420467385664923,1.185427106334223,0
1.80498485490507,0.8233274793532954,1.01406883252808e-07,6.895699049207587e-15,1.362729340888743,1.271896785050079,1
1.087052958721371,0.7373429405923939,3.692409968284655e-07,5.3589624605971014e-14,1.333067311976885,1.249686380598952,0
1.868941669221149,0.838825834861598,3.341673332412139e-07,1.008039255769603e-13,1.445898611363944,1.160437713726339,1
1.206919148013129,0.5451698138278911,4.672005022843227e-07,8.842537522647092e-13,1.43886554253555,1.176465236854935,0
1.060395889962517,0.7689422472922651,1.012009358561917e-06,2.967004129540558e-12,1.382046311051988,1.256368370535723,1
1.844250576070276,0.8173726623332104,1.442764083130322e-07,2.678863694515904e-14,1.355147926339711,1.224344147125647,0
1.731900251479706,0.8302641568998987,1.540093174137057e-07,1.797506935033097e-14,1.326117852995682,1.285417621328373,0
1.428547370085345,0.7929012234859325,1.829166415593959e-07,1.5510259608776932e-14,1.282593292392242,1.374508074531933,1
1.735331403489613,0.8380532914570816,6.835170603717029e-07,3.5672551236726424e-13,1.502988400277839,1.130903227007531,1
1.53241063693965,0.8066929735362536,3.560942044577028e-07,6.912852012519839e-14,1.256312448609993,1.43817423490923,0
0.6787652166817242,0.7694526257548565,1.932162306155879e-06,6.566419977563461e-12,1.474320516501719,1.171866476120344,0
1.332027109051626,0.803316584291069,2.443971716724607e-07,3.7783896984903225e-14,1.421695315159171,1.20318990296307,0
0.3178166508635183,0.8108065833089907,7.283532512614119e-07,2.786520973305203e-13,1.471666596090681,1.158369613005125,1
0.8377663555374346,0.8133277162253711,4.208026002358167e-07,7.553708585020482e-14,1.350250637656842,1.259583151914705,1
1.025859668445978,0.7741264512807199,9.500153162116912e-07,3.405358132460859e-13,1.294985657627134,1.285157538499754,0
1.727728086058619,0.8266986577818212,1.162885240331571e-07,7.567529587004837e-15,1.330985567840495,1.346807500857429,0
1.372624893746855,0.7923403681692676,3.824865098958382e-07,5.775715842854469e-14,1.331914554056765,1.26848697738229,1
1.256422369120294,0.8192303940768989,2.19191243597456e-07,2.1158799581264683e-14,1.338421653120184,1.254340168668583,0
1.291228296972487,0.7872361108518577,1.443947336562007e-07,8.233319540598276e-15,1.208516140612143,1.422230349471004,0
1.211149499847439,0.4456758277832693,8.758848916349145e-07,3.433058384161286e-12,1.439353489822375,1.160504327692518,1
1.098435105808249,0.8029159171095058,4.341029709637523e-07,1.0028471075615481e-13,1.491688141917849,1.180618654156724,1
1.093751746890443,0.7742051562819127,3.744323716195709e-07,4.857954253827251e-14,1.263878134151053,1.367179445280084,1
1.392797638565172,0.799213585200016,4.171505432771054e-07,7.674242067001203e-14,1.343724537156666,1.251070123843268,1
0.1989138389403932,0.4684342589937585,1.615652916146935e-06,1.186014359100629e-11,1.535083457484379,1.133708756457229,0
1.545903213001672,0.8035227370399689,1.401326651705223e-07,9.597277638939778e-15,1.345336846001013,1.267449627873993,1
1.873253495741008,0.8121449379015808,1.260664000630422e-07,1.8516810438048033e-14,1.416820567240341,1.202849373964317,0
1.522903910841254,0.8170521133726478,1.652381643104304e-07,2.469829388584452e-14,1.444394044226498,1.194869109182281,0
1.592333238927634,0.7946769555212433,2.999614394448776e-07,8.844954262244876e-14,1.376426036977535,1.210293691694975,1
0.6288738969176021,0.8490877038986248,4.64700995397099e-07,2.657855772974543e-13,1.380856459021644,1.231002400330221,0
1.673762743717246,0.8221573615808299,4.271033261141047e-07,1.267802529422423e-13,1.30740545246407,1.380473662321048,1
1.725528644020394,0.7812049828884304,3.258177738974214e-07,2.2471918066562692e-13,1.452740952605583,1.170428742080515,1
1.093536130720681,0.7938289794652393,9.94408795043187e-07,3.658806688749255e-13,1.383139437343204,1.223637718399301,1
1.490050738347648,0.7047448719263449,5.650420526231698e-07,9.162562320864781e-13,1.428493273313383,1.178515928172784,0
1.863674321256178,0.8113916902662501,4.126259390765922e-07,3.4786022351408097e-13,1.420802334854779,1.194998967577574,1
1.429911350565669,0.8203952960743086,1.64199865452862e-07,1.2549514490907161e-14,1.382292819398711,1.221094069594469,1
1.306071347612274,0.7993628848313505,3.041982339229169e-07,4.11668284261289e-14,1.290636111887698,1.343724442504932,1
1.015127095167352,0.69592759726023,4.443741991666562e-07,5.621619431414712e-13,1.473759504020855,1.158708984654529,0
1.469758103657217,0.7963409276200593,6.767104583802191e-07,9.104222945713546e-13,1.450675374341252,1.174207534953568,0
1.32656323437848,0.7657906038790052,4.279824657313408e-07,4.649331190280036e-13,1.377817975456869,1.218801354316793,1
1.216498143639817,0.762323040108411,5.785718200376698e-07,1.2781419400626452e-13,1.303466372399525,1.303140679074706,1
1.32450384465416,0.7871033306703733,1.885840159266278e-07,1.56552035363595e-14,1.370268928309991,1.231633030457119,0
1.084619974021708,0.7892794342821878,9.804467072503142e-07,3.974492556528736e-13,1.401346720556208,1.212660164286966,0
1.580531376870692,0.7713475149423169,6.511736569290663e-07,3.729872966301812e-13,1.259942748098383,1.319485836374977,1
0.5260198408883047,0.831762806465908,1.039791629447236e-06,7.649613880562293e-13,1.298505992664479,1.359011977767575,1
1.067359820452939,0.8127115273462663,2.345339576205928e-07,2.377299379299705e-14,1.384487380136171,1.249509848879228,1
1.177821114504684,0.7931614487575189,4.643599248021854e-07,8.162624822043026e-14,1.308899460121706,1.283679438296503,1
1.158544346159061,0.8237888438605232,2.132277971810922e-07,2.2307329802859362e-14,1.389113445170137,1.224744374153568,0
1.840382314392184,0.7890570608799092,3.731705252263295e-07,3.4480248350575563e-13,1.390996720893299,1.216038357945292,1
1.693742432667626,0.7613208439640892,4.822043649837627e-07,5.446579603425809e-13,1.431701750256032,1.18694247346226,0
1.612030132191869,0.8255615343165869,1.22586557978835e-07,7.195765956021193e-15,1.299060643513401,1.320342931233326,0
1.428670733723018,0.7985168719889755,1.354663242680442e-07,7.921667887744349e-15,1.326453621305957,1.270871144469068,0
1.420908674149403,0.8114579200563082,1.489007331082249e-07,9.738419425488143e-15,1.282454500703296,1.277308513377305,0
1.260028946889444,0.7864941853691877,1.118481668693201e-06,5.205732105303079e-13,1.279926113325508,1.278393157833132,1
0.9733149441926368,0.7242118589390727,2.894941044525703e-07,3.022384905037048e-14,1.258624850167154,1.369305536328406,1
1.391730814194695,0.7968764964553428,2.897693666925457e-07,3.4041578683746394e-14,1.37186509356961,1.223692562352295,1
1.63860944091509,0.8253112010584983,1.119807203518115e-07,6.2790275824987045e-15,1.33572282781651,1.316445844319726,0
1.236388363572664,0.5379308241793785,3.285268268045214e-07,4.4703336545920743e-13,1.425775539434638,1.190850310748794,0
1.502648621274072,0.8291618811256192,1.885264144949839e-07,1.918502902435898e-14,1.345845385526639,1.304680999872591,0
0.8184018738825054,0.8323285337159606,9.05762287410034e-06,4.598047523791494e-11,1.420630513408224,1.181318955864217,1
1.123631288338998,0.8067154959754188,1.08691296012315e-06,4.4719865964240414e-13,1.373237837072103,1.22858627612746,1
0.2571908929625885,0.7973849318276297,6.108684300277746e-06,1.4144286410493069e-11,1.343855975167425,1.248837259632017,1
0.5673995038587476,0.7639093570178054,8.685188178203033e-07,2.671522469193924e-13,1.359686347436285,1.245940494565929,1
1.632558777732685,0.817476703431672,2.019072693328706e-07,2.254452169715544e-14,1.356597344405009,1.243039689965465,1
0.448818023047871,0.7946729613197845,1.363221135443614e-06,6.629630387378973e-13,1.354816161222205,1.241636456296774,1
0.5944399026155139,0.8220868337194212,5.768265919557318e-06,1.366090450881713e-11,1.36476218330234,1.235578202798816,1
1.025140398081007,0.8409357205293277,4.029230500093037e-07,1.172223998647755e-13,1.450549476482465,1.176338421742111,1
1.66645248585855,0.8382309022139387,1.505338094842188e-07,2.3121092263552612e-14,1.37736061626743,1.217738423798185,0
1.280727745964182,0.7905398840918426,3.061379806588124e-07,3.6684357338231894e-14,1.323645991424922,1.272667926428199,1
1.524635233150811,0.8210393001390193,4.083028723550161e-07,8.42912660810197e-14,1.329166221595155,1.281668586712728,1
1.828302077830949,0.8109335885514622,1.613221227124794e-07,3.2570768080240174e-14,1.324643895612814,1.253068461607224,0
1.602746700448346,0.7395964537288382,3.527414064422292e-07,2.657957471636184e-13,1.398841862502115,1.208900765678658,0
1.732890248787973,0.8246266012498776,1.274492183281804e-07,9.128032570362635e-15,1.284477274849465,1.405820644638249,0
1.336143340664507,0.7964111500162908,6.27260505141123e-07,1.719707303924408e-13,1.346331798413414,1.244439322877074,1
1.644795875658322,0.8348610226228155,2.252128137506724e-07,2.6268729655569552e-14,1.340650339869332,1.253794340982692,1
0.7141266016720494,0.8312190913288825,3.569477465796598e-06,1.677065219439408e-11,1.469666002416228,1.165113309467896,0
1.895875149077742,0.8211786294819413,3.782127590415497e-07,2.0979418377594072e-13,1.437407335930321,1.175272426743517,0
1.442249848810038,0.788324615329345,2.149830045862826e-07,2.3174639678935913e-14,1.335787351985027,1.267496510542067,1
1.446521659017701,0.8010455987103698,2.654227631474322e-07,3.4783736760424414e-14,1.339753270848574,1.278978348927284,0
0.679116931678107,0.6805610496340757,2.497489922885939e-06,7.607587925881519e-11,1.350044433508477,1.43578114479633,1
1.865493053200282,0.8222142117365258,9.809023648863043e-08,9.813012266084562e-15,1.432802850533313,1.186435479005921,0
0.5465518383844392,0.7890140085631071,8.087370510146671e-07,1.4519510171321069e-12,1.471812835660718,1.14116002479503,0
1.704281738214811,0.817096931665358,3.446732920404774e-07,7.989453138053311e-14,1.307469309710538,1.322194939268088,1
1.833774880762468,0.8329861043740713,1.338968623538577e-07,1.395052078439328e-14,1.403339678528882,1.202276524637242,0
0.6729900470073699,0.818502241512466,5.523187453761417e-07,2.452685933748848e-13,1.414393849525112,1.219212573707072,0
1.243873120785519,0.8167087719203586,2.530851099198383e-07,3.4636823319464454e-14,1.431690469058671,1.193431490266751,0
1.610158000184993,0.8038237618327578,2.505964938457936e-07,3.207548424384394e-14,1.315394767879477,1.292141958195027,1
1.06359244738472,0.7716330308710899,1.051671717759569e-06,3.981139243531747e-13,1.343818182399517,1.254394961989491,0
1.329950489826467,0.7872661077027927,1.009045971640099e-06,1.17788381567799e-12,1.334160948302125,1.243383974831874,1
1.028608246709272,0.8259369281286066,5.188463673456157e-07,3.08395364950209e-13,1.45253041794365,1.185731112749343,1
1.611539463846977,0.764645571170969,2.023127262149592e-07,8.572733605008502e-14,1.469683475976027,1.165650009573841,0
1.839113134660205,0.8294342785514283,9.287218032947889e-08,6.586192277216538e-15,1.433922365733169,1.184780871323628,0
1.142661826431531,0.7869307290894186,9.588500621016276e-07,3.275510062085285e-13,1.327848337263708,1.254652335778619,1
0.0771316038703151,0.8446246544660502,2.702906143422916e-06,7.087249743794479e-12,1.396519655614555,1.164869814072373,0
1.733307223421275,0.7762260787299287,8.99119131166799e-07,2.097597072574962e-12,1.377009882184183,1.24452529976136,1
1.152158949351881,0.7796987329815787,5.558696279679907e-07,7.12429159159505e-13,1.488179165485852,1.152220132911847,0
1.288635322659534,0.826138398880303,2.899326647629191e-07,1.783746849976122e-13,1.475260447618731,1.17669358528645,0
0.3809359782168856,0.7858211020000041,7.006195348107288e-06,1.0925426493139929e-10,1.49455538224168,1.133661953034595,1
0.9457889267315012,0.8319129212218221,2.981755649869074e-07,3.9808681063955466e-14,1.466549504611615,1.168580303783552,1
1.862780444142297,0.8409105403072406,3.857166628305795e-07,1.647183684963351e-13,1.418467924650036,1.191771434024006,0
0.9969854371553488,0.8014512895551402,5.612630495287552e-07,1.9043389938029292e-13,1.461566461150324,1.167428099755268,0
1.009073265544402,0.8105091677218982,6.545807502146703e-07,6.593963063158584e-13,1.460195398238098,1.153406458114569,0
1.070964265866119,0.8224504915828165,2.56668400103587e-07,3.3726227664700424e-14,1.378411868305818,1.231381917609508,0
1.1249785599076,0.7844065975668639,1.133929893172098e-06,4.479151682515326e-13,1.281656422616547,1.286895790778979,1
1.719365458647402,0.8427261326366432,2.0701973366825e-07,3.0242536369780484e-14,1.39190876488625,1.222931688785549,1
1.658526237502054,0.8171544661178552,1.267493520462185e-07,7.856986936743089e-15,1.327310733410436,1.282548502620528,1
0.6801781916648691,0.744115080968495,2.334966012746984e-06,1.5045732442185068e-11,1.436788929184962,1.191867720165517,0
1.731288694043389,0.8208456832089641,1.438127875947466e-07,1.0926076276865051e-14,1.274319035919603,1.309709353882855,0
1.496697297592188,0.7868818867056178,3.780815875400896e-07,7.852120192924963e-14,1.275710344108732,1.257220030895775,0
0.9675574914670704,0.8126257312330739,1.251535024896512e-06,1.318174432385459e-12,1.470656193964505,1.15451914106059,0
1.73220136088384,0.7605814106815787,2.087584344768509e-07,8.953454149591565e-14,1.395447196953411,1.19925330120067,1
1.878279636836002,0.8305419052555489,1.209639203051066e-07,1.507519397918618e-14,1.297504396905825,1.348048545331986,1
1.881329900469025,0.8210508109819195,1.477928468399513e-07,2.5098876397206444e-14,1.332403964205241,1.256673015273483,0
1.197602581709526,0.7840841611329505,4.999353721254093e-07,2.328493937391167e-13,1.403304014752791,1.223683595846869,1
0.7091827208125863,0.5830784302485862,2.498665854111476e-06,2.4629596447886438e-11,1.454568767289478,1.169911684819256,1
1.434955047883801,0.8364715762410789,4.409634361207426e-07,1.924465223911133e-13,1.424821193200979,1.18683910984216,1
1.734806308889265,0.7711202763003372,1.768348527462131e-07,6.823825475732114e-14,1.39805310196642,1.21441220254143,1
0.9972734492450837,0.4399256923873125,1.009092797323827e-06,5.1563464286711866e-12,1.44845105189558,1.165202635804662,1
0.4146516581768699,0.4635459082594633,1.059812013694004e-06,5.348154286970694e-12,1.552301075716018,1.111703784192963,0
0.6633180232498376,0.8340141447956846,3.464112390592684e-06,8.29992745557955e-12,1.492979953418435,1.141549881528261,1
0.6351154197508324,0.788110482958091,5.062213181051536e-07,1.526387774689136e-13,1.405184377124132,1.224690917435155,0
1.407307836030059,0.77763436549054,3.459071833885774e-07,4.977009814971397e-14,1.309554489150487,1.272466626993413,1
1.500028979538687,0.8151734752657404,2.135412727262065e-07,2.3155627337332373e-14,1.352767429110632,1.25933886724955,0
0.8177523547317562,0.7107410880696343,9.104778861898368e-07,2.186848410802119e-12,1.419505484548092,1.176398663115156,1
1.145395763846675,0.7829307836129313,1.005928497440948e-06,3.578600605586573e-13,1.25037323708351,1.290263666974593,1
0.5128990750873531,0.7991182920951255,1.31240446299625e-06,1.959265176784536e-12,1.404011726234029,1.209784884979296,1
1.285439683807554,0.7982223564080384,2.16094875072355e-07,1.9024944790427902e-14,1.354479558153567,1.277223695009956,1
1.406362409790231,0.7797089537352038,2.125315080424611e-07,3.2558746369298714e-14,1.367497503159736,1.218836853660696,0
1.529180858716738,0.7840280470417794,1.719670766599248e-07,1.3526005842119571e-14,1.380362290900388,1.242204677607064,1
1.769782110996897,0.8430521355685571,3.406449692403785e-07,9.510030975766488e-14,1.368740187222668,1.234861626958433,1
0.7576887516982667,0.5195836677104414,5.92303295090432e-07,1.566638346208843e-12,1.48462762449798,1.157379950655905,0
0.4510106237928467,0.8173910178495066,2.115006027658929e-06,1.966211236894508e-12,1.438575815114696,1.164135125201373,1
0.4028550759476409,0.8163419268314036,3.692245825432697e-06,7.03339853964246e-12,1.37833832819935,1.208285661415822,1
1.026387518185736,0.8237499503244896,2.317751803617015e-06,2.609684805174719e-12,1.402203268552684,1.209961842853865,1
1.881203161608169,0.829247698079681,1.171116942530849e-07,1.5644964733178662e-14,1.388265745170911,1.245086025147279,0
1.767448804841701,0.7792137228209649,2.933158552225179e-07,1.8697760220177021e-13,1.423363033620231,1.181486426260837,1
1.243560549493042,0.808433828216219,6.326374181362881e-07,2.242105087064352e-13,1.381958368622531,1.226720796734527,1
0.8984038755212156,0.7503354011602669,1.731190482605079e-06,6.8959251464903285e-12,1.370540872281694,1.223481492512453,1
1.054225858629741,0.4682984825633059,4.683967233054617e-07,9.878750921718933e-13,1.461808497814831,1.162998098864727,0
0.7117161306556908,0.5769446740831147,2.709379816883466e-06,3.6764190550119736e-11,1.265046834445095,1.339708743492744,0
1.752117059795266,0.8248592303961377,1.278130298383507e-07,8.688153573759145e-15,1.268276872384632,1.449860447936447,0
1.116822872401777,0.7830795095001468,3.127624812399319e-07,3.5356659195220894e-14,1.347518146430829,1.254178537909996,0
0.7973998782156043,0.8252635019127142,3.480877164854161e-06,6.327924485692227e-12,1.255884784569472,1.293350518276918,1
1.551072391606048,0.8001924523267334,3.317105251326413e-07,1.646533317285339e-13,1.354999238057673,1.236318516303356,1
1.768804184541926,0.8208321497196315,2.112944034109688e-07,3.9630261469814715e-14,1.321031641381009,1.335416873183008,0
0.7375109061186682,0.8206028028427989,3.473624751582868e-07,1.1291739508914711e-13,1.39742443433793,1.230516902129719,0
1.171293744108155,0.8064931358469611,2.514063164116465e-07,3.0169320211933113e-14,1.37583973655312,1.227995637865866,0
1.801887545962095,0.8141428427958615,1.082978208793819e-07,1.3381601951494192e-14,1.416761598405268,1.185687224873214,0
1.779281392659422,0.8173788378141353,1.023933261305085e-07,6.612580869765153e-15,1.32935277895473,1.274047353369424,1
1.398792631953329,0.8260061113088681,5.043922327110789e-07,2.5910341605664043e-13,1.3630035703606,1.24563865497591,1
0.5809454404647211,0.5608258881737356,2.235858012207108e-06,2.001382652523732e-11,1.47665487188604,1.150719754446482,1
1.435378271436017,0.827184290300994,3.615229727397792e-07,6.889006618810567e-14,1.392342124650419,1.207672800353696,1
1.360283902420308,0.8070328599067234,5.603053819841605e-07,5.631231591997294e-13,1.3957159948164,1.21665398118531,1
0.6065595736287748,0.7707913693645572,8.101983608198446e-07,1.297335443763627e-12,1.499267198799296,1.144682862333489,1
1.302465444261994,0.7868569384391378,2.185963724439005e-07,1.951926278273449e-14,1.342216185264018,1.250320369418972,1
1.56601991656962,0.8277484709968636,1.145097063699562e-07,6.205004382202603e-15,1.349029183350425,1.24758051091002,0
1.581335700147335,0.7969083114748398,1.700358593314813e-07,6.915492210124122e-14,1.418324312936495,1.194526109181477,0
0.5676954976108719,0.8362108451096661,5.430288185876119e-06,1.2457993147826219e-11,1.427572614861917,1.189423783537908,0
1.283540754722983,0.7867608275704596,2.82671072169859e-07,3.4096354608848723e-14,1.242675250836761,1.459686771426469,1
0.7576868771661905,0.6249994962025214,9.034853504860588e-07,3.193569236529363e-12,1.477862935347743,1.157337825795979,0
1.792160235287877,0.8430914906592268,4.447175997303099e-07,2.2939311252666413e-13,1.419109437086955,1.200809714626526,0
1.62410172195151,0.8240369804954198,1.140802813983457e-07,6.431105464980388e-15,1.262595034332789,1.428758334024403,0
1.001021163942847,0.8067426306708244,2.927005896466405e-07,3.8770156307927044e-14,1.387956193822097,1.214319946381221,1
0.7723121763337486,0.7848621361117764,9.038446605218168e-07,1.535608878395543e-12,1.427001944136421,1.164778126131946,1
1.081615242970148,0.7782179296450773,1.146176476076878e-06,4.854768050044753e-13,1.379326357606546,1.236838327483495,0
1.470068262944452,0.6526696061083468,5.123222663025463e-07,8.829147777933446e-13,1.475518917312872,1.158260352262589,0
0.5419603946981271,0.7356362360978949,8.192185167774471e-07,1.793205214436938e-12,1.432876279167244,1.166592364998873,0
1.086037057536438,0.8285753259479078,1.036240245519288e-06,8.9522331376693e-13,1.370636100678286,1.206208196484553,1
1.696005747220243,0.6793185498511463,4.766887432283555e-07,7.858615069774149e-13,1.46665874775846,1.159692213780912,0
0.8212270705010969,0.8334450524037227,2.130502001263623e-06,4.495044778856928e-12,1.444994975827743,1.168045390779106,0
0.5508767458439131,0.7901047321017561,7.534640203147089e-07,2.7434618007998453e-13,1.407103895945198,1.203021731126495,0
1.367860492335165,0.778360240905051,1.995530123824501e-07,1.6941788826146452e-14,1.298381070283761,1.323312240020582,1
1.649526581549711,0.8095031613520448,1.357439629579929e-07,9.792346265569874e-15,1.320639035602741,1.311950544019605,1
1.198378907935876,0.7789212477669041,3.372321212862486e-07,4.456841632317132e-14,1.293972899209368,1.2677470044791,1
1.002650355982799,0.782304580468236,3.159192354519759e-07,3.963396292734241e-14,1.336634853608749,1.276468778074935,0
1.674270820219222,0.8195936757500403,1.659394492963312e-07,1.484523567219266e-14,1.338675661058075,1.303966070758009,0
1.400082767937939,0.7657057716857025,2.753284466013447e-07,1.266428780167817e-13,1.429945874035258,1.200223673833349,0
1.778538388148448,0.8182746908639991,1.221930331316554e-07,9.83442300750054e-15,1.38023277577277,1.244008183113998,1
0.6853765262353797,0.7696303848051729,1.268403547469649e-06,3.838147823395636e-12,1.491226129577203,1.156379631821041,0
1.469810646671563,0.7882879165286959,6.441444797599674e-07,2.128150025001214e-13,1.34294103253823,1.252248868941279,0
1.525490155690679,0.5502867156459175,2.377900504513168e-07,2.20735741160572e-13,1.426442366439511,1.168278930767911,0
1.780377831064668,0.8325339053983875,1.30680825444488e-07,1.2644803053849941e-14,1.330003533765371,1.284752738771771,0
1.488118680505437,0.5851028145843918,1.955345753690582e-07,1.299362450488741e-13,1.488255386628774,1.153690840198333,0
1.133087645908331,0.7953687855972428,9.472448090368756e-07,3.5085998149388613e-13,1.325421404099135,1.238549304466533,1
1.144722954175893,0.7946557256977064,9.09466597455653e-07,3.002377978013782e-13,1.360142041676051,1.244525818878148,1
0.7213152938398282,0.7947566802636147,3.920750128544618e-07,1.019729203846941e-13,1.332763651322467,1.2665500056171,0
1.55949085690549,0.8287341006751303,4.235011912202824e-07,9.477351261022225e-14,1.404376531047826,1.215288066049354,1
1.851745654882211,0.8213501729010184,1.483289301223234e-07,3.2541369367234194e-14,1.311977808682675,1.265631437898131,0
0.95530789791992,0.7901596626938628,4.66077501077251e-07,9.007412739218709e-14,1.301440909030083,1.235394061416991,0
1.025629309975147,0.7711515168120501,1.333078742863226e-06,3.408501883072746e-12,1.40138431915895,1.207706380721896,1
1.622153480207519,0.8197463866720965,1.946913351305915e-07,1.995596212841047e-14,1.343441898734743,1.240239684809684,1
1.475092898190322,0.8143291250481657,1.83277735463755e-07,1.633097297955126e-14,1.339623565181947,1.263867812412415,1
0.8397615793350234,0.7660097632673515,1.534258822264622e-06,6.8578052350139655e-12,1.420000935247165,1.193469331833569,1
1.28177488087986,0.8239314782396604,2.100947148479183e-07,2.0134196188100043e-14,1.386061372234035,1.222064505471414,0
1.042461127798215,0.7851677933618771,3.266194364260756e-07,4.0882615438785054e-14,1.315026663429373,1.269325519915995,0
1.297263639690449,0.8098528632912579,1.122148364553772e-06,8.068780442589335e-13,1.396140724213872,1.220358697269563,1
1.015591841429331,0.7499760476906302,2.597837432591077e-07,2.5001161040692232e-14,1.221902004227444,1.401961945292929,1
1.640197483871466,0.7921897142858312,2.399867472523771e-07,8.78600880085002e-14,1.389740563862869,1.19071600279004,1
1.744055609538084,0.8324387630153218,2.487750077479623e-07,6.24825388110542e-14,1.313650203404495,1.332922875470933,1
0.3117947357229938,0.8115154458529426,6.427654192703187e-06,3.4940495290591805e-11,1.403611268335763,1.191133444345757,1
1.629622632793539,0.8283296160623763,1.480813967123955e-07,1.1434400571820732e-14,1.380673466723127,1.222088109589933,0
1.612399068785015,0.8104171793378186,1.369632302835624e-07,9.63372761376922e-15,1.312797349312995,1.274174927876611,1
1.651070528261036,0.8373825372992988,3.780024505164581e-07,1.334583065478858e-13,1.370743570797344,1.233896239795482,1
1.609751800919676,0.8146161445933666,1.958583128382461e-07,2.047741627049271e-14,1.321499866965157,1.258414009967803,1
1.509183564490399,0.7864641006140474,3.301284230022363e-07,6.698995074368997e-14,1.235638108208055,1.496384187924302,1
0.8657166590553278,0.487139575839645,6.228363607868588e-07,1.740135179026326e-12,1.435751330348249,1.202292541457579,0
1.645512459317862,0.8258229817330125,4.689657329839428e-07,1.149331532862468e-13,1.380988755806298,1.211497396909829,1
0.9875099033855186,0.7233874679692964,4.661723919363046e-06,6.508335516611905e-11,1.411678070192813,1.219357763995645,1
1.734590947506688,0.8363171438927847,1.508712533463711e-07,1.6469009039952053e-14,1.340732344867206,1.251702049006019,0
1.424748637470016,0.7954999665064147,3.296800859582928e-07,4.9427747843895015e-14,1.352256937620949,1.231240416852621,1
1.118969704399195,0.7758011327755747,7.125851101106443e-07,2.0721783807486211e-13,1.368791959654084,1.232770577092401,0
1.828409982612031,0.832990468376979,1.20571488222299e-07,1.096142116063749e-14,1.366952868491685,1.255640811504831,0
0.8790073736963722,0.5340463651171286,6.714447972056947e-07,1.784282385982342e-12,1.465980888035985,1.162328156262237,0
1.728068934174469,0.826089342087243,3.126827609987681e-07,1.555096545047593e-13,1.454291753851152,1.17535378120765,1
1.509003969775894,0.8139195143078326,3.065479108304444e-07,1.1880892076033321e-13,1.238290049848537,1.852826727765551,0
0.8221430614418552,0.4147182136243972,6.611484650685846e-07,2.079867064112567e-12,1.502279181378657,1.144797143676145,0
1.139824141723624,0.4487061881893318,7.93887969795443e-07,2.885394864729974e-12,1.492021066624689,1.139152283666674,1
1.489271109268043,0.7770173056617712,2.526805438768598e-07,3.051005658533037e-14,1.379176667435334,1.240600008466361,0
0.1718595818929802,0.8253889575065887,1.01778704704856e-05,4.3537562009529826e-11,1.455300045559312,1.165708608787756,1
1.441479327840545,0.7381193629685525,3.869127449995314e-07,2.933888217888753e-13,1.411732783404741,1.191889115625077,0
1.77543018549413,0.7640476828813532,4.563992501861681e-07,4.811298291290786e-13,1.453041857152565,1.172329429623816,0
0.8268147962379085,0.8038891898868286,6.09269061363214e-07,1.43107002189581e-13,1.290181617181691,1.248470949845932,1
1.656559734330278,0.7209469765235889,6.567226370765316e-07,1.075746991344218e-12,1.44069090386379,1.177842894615177,1
1.631485669469472,0.8274687057016706,1.808893073288068e-07,1.7835026973965822e-14,1.372633429754369,1.217905533543348,0
1.201603909471221,0.7012117624660027,6.267914474650756e-07,1.15108296433849e-12,1.420928125428649,1.184191729414383,1
1.210990849405143,0.8077615692523897,5.044012017649216e-07,1.080023729302235e-13,1.390183962221069,1.218514407825709,0
0.9811124469576749,0.8054374212831675,5.242274876654819e-07,1.319684105467908e-13,1.352960622154933,1.310649158006726,0
1.551779452847842,0.8190993835142907,1.526722542345613e-07,1.1772801208801822e-14,1.415822720091967,1.192174631278,0
1.091781809133348,0.7738306712985961,9.447306593755492e-07,3.237677547128435e-13,1.306475910491045,1.2765700251637,0
1.634023796619427,0.824446142940473,1.24176504227284e-07,7.922253140753786e-15,1.302464429608133,1.3880144751191,0
1.842318135430484,0.828529216970949,1.466850047328019e-07,1.686593815333386e-14,1.384521220897538,1.226466611044867,1
1.769309817192676,0.8173863604168444,1.620320910013278e-07,2.953759380926828e-14,1.335978139221203,1.227579936252113,0
1.659259921285806,0.8187865203500279,2.420951424254318e-07,5.2811623151962803e-14,1.40457025176145,1.215975546660001,0
1.409537306669406,0.8364015402241286,2.02872586495647e-07,2.873551727625398e-14,1.35774774554282,1.238776172658806,0
1.269742452818457,0.7585177566418888,2.533700148598551e-07,2.5176485788153762e-14,1.290969773331044,1.332516801824571,1
1.007184019241009,0.7769818557254519,1.354665641136831e-06,6.43927019480423e-13,1.318644717671864,1.275622567902907,1
1.846231048236016,0.8360768997783837,3.611502897744303e-07,1.519413515003969e-13,1.412744831704509,1.197245273545439,1
1.177071110614252,0.784855874350157,9.868931807044537e-07,3.7362833624144393e-13,1.217696814212415,1.561723562494458,1
1.119520277787271,0.8139806591988842,1.243308674201523e-06,1.402344341610479e-12,1.410911418765332,1.218338624511242,1
1.45410439427391,0.8172287811930977,4.69396126391841e-07,2.0518564617508271e-13,1.356791949260572,1.257612520552864,1
1.928487894595685,0.8356949006318853,1.063056227477995e-07,1.1012605359955161e-14,1.423044627030317,1.208612604123261,0
1.875067413243257,0.8227523742811239,1.649964293499013e-07,3.273415314338313e-14,1.388342437452136,1.202768865701906,0
1.206026679987922,0.8309866116283333,1.340486122025989e-06,2.456115607650962e-12,1.431857425136204,1.18344488692947,1
1.257632985228949,0.7078469678104312,3.941291591388285e-07,4.1462834258921783e-13,1.470648159921364,1.161627489830422,0
1.868708401882253,0.8295463439375412,9.491555145998405e-08,6.317619301583577e-15,1.398377235290955,1.209767487401312,1
1.12849630755767,0.8019152937122807,3.393656928466097e-07,5.74800857718825e-14,1.411923255743082,1.212277230141837,1
1.17966406486309,0.7913710218714705,8.081372098943094e-07,2.59391054363392e-13,1.374282423024245,1.222338395800606,1
1.69988468590089,0.6898122067677386,4.033817510268341e-07,4.910249598544369e-13,1.437337466367926,1.168778702962824,1
0.828100517440372,0.7795363273211343,6.435065936245369e-07,1.567606016594048e-13,1.354844603758611,1.251770759324996,1
1.320120643213182,0.7938998729437137,2.105616267232738e-07,4.6466777165476243e-14,1.418242650769985,1.233197056367672,0
1.585843709618481,0.8165708871133225,3.118857512429307e-07,1.63079620341892e-13,1.401017041303623,1.207576033777878,1
1.107089180850548,0.8015977449762033,2.757546034838351e-07,3.1334058954083776e-14,1.332639123644001,1.282293536359982,0
1.651257867638755,0.8265369397660641,1.471744160371775e-07,1.3413446757927291e-14,1.334308326814164,1.266573415084755,0
1.141334980692904,0.4329099384197171,1.036149551675693e-06,4.921178531830485e-12,1.491966476410132,1.135013189656136,1
0.2960589082294095,0.8115324898901612,1.443253006102142e-06,7.727613549908082e-13,1.426166826138667,1.193998924750285,1
0.9160243767911032,0.4903407260889779,5.796650920640867e-07,1.457323975669071e-12,1.387658432984882,1.209561971398774,0
1.138401055032364,0.7965986194168584,7.618433026480372e-07,2.831568733123502e-13,1.288292748283311,1.296400299899554,1
1.433894420964875,0.6692608704814931,3.48888010729015e-07,3.313799808457665e-13,1.437190198662605,1.193253506546117,0
1.692976480908128,0.8033774638174961,2.363413886009654e-07,3.142013535320641e-14,1.274015613581545,1.37928933762324,0
1.734423487204555,0.8245614753780699,1.987509790818062e-07,2.9543987475760764e-14,1.335508764755968,1.28194148640511,0
1.121070522310268,0.8299689429857726,5.58778418053743e-07,1.3154969418887051e-13,1.377169653216624,1.220301105716655,1
1.113244025448904,0.8144093700421223,1.729398402963056e-06,5.691444963554535e-12,1.309400188042756,1.256718590728429,1
1.184218142994699,0.7873469808332569,1.458922314943022e-06,7.696218102585328e-13,1.325930715989669,1.221592531225377,1
0.5543524401123585,0.82000210351212,3.091949904990494e-06,5.478222979457938e-12,1.386529656090744,1.199062796375645,1
0.3555621588954315,0.8014858580057196,1.020667521211208e-06,4.123258212158381e-13,1.333091263541798,1.193999253503814,0
1.258781869804893,0.806500440455931,1.968406927102935e-07,1.6551823134890453e-14,1.323783404967077,1.269328177375553,0
1.657762550539806,0.8376703258281708,5.015524829486659e-07,1.503836985886769e-13,1.434610725144117,1.181170594614587,1
1.094242425621144,0.7975226010875757,5.617245755529985e-07,1.334141111478596e-13,1.394122625040968,1.222117975288203,0
1.408921609036157,0.6870536082740261,4.047610153688938e-07,4.845876454494641e-13,1.437387023158642,1.177273748187924,1
0.8251677982752712,0.4233915650653232,5.70955742958213e-07,1.602077806909379e-12,1.484650970339273,1.155243211939486,0
0.8935824038582265,0.8199336622441014,3.343593166802518e-06,1.506925697419311e-11,1.41129989009689,1.173803710910349,1
1.31475717060755,0.8243576025843881,5.333273260821486e-07,1.837122445160722e-13,1.351975159699481,1.255148118407406,1
1.544112618137767,0.8126979271564597,1.693480527564565e-07,1.397358038627955e-14,1.385270309118775,1.209700294041919,0
1.665547807308964,0.8217909724034589,2.115153789410085e-07,3.441187705485041e-14,1.297979418753454,1.358772796103225,0
1.646514846286696,0.8318960807080884,4.3748839438608e-07,1.084699848952812e-13,1.382828352599202,1.222123060125469,1
1.508738430529767,0.8289070652551581,3.095649126870688e-07,6.494240060295473e-14,1.281840461076942,1.675492327902686,0
1.316127080538301,0.8317301487561524,2.915299132021874e-07,7.626215405896307e-14,1.437689251635267,1.198326275598582,1
1.295853476118782,0.5862728995959788,6.395842373296734e-07,1.543409970022691e-12,1.455600730221507,1.171627267988751,0
0.3140176932703473,0.805811498022989,1.623214359324157e-06,1.042572997159535e-12,1.468416374880859,1.166748927883788,1
1.285779981341143,0.7373688837889314,5.512904279305037e-07,6.811460066653618e-13,1.417964110736176,1.174806546277524,1
0.7597148508289623,0.6253527180234767,1.133427345832044e-06,4.881809275749268e-12,1.48335273744759,1.158311397854356,0
1.620711797823926,0.8151331533910636,1.020489996075545e-07,4.935516161426604e-15,1.335928787814528,1.296759032138342,1
1.291962248000647,0.5166147909737188,3.092177268435356e-07,3.996013121926906e-13,1.475849761110922,1.160934156482931,0
1.465234286663393,0.6873541051618968,3.473551722649954e-07,4.725140660001846e-13,1.370433049357638,1.239339414092286,1
1.225647728586888,0.8018868103698208,1.798448598255148e-07,1.384956753010786e-14,1.32788132846942,1.256340937076873,1
1.435520907434819,0.7904317069470203,1.847320586352885e-07,1.487886760353025e-14,1.337964431665221,1.266947387911662,0
1.70431002300347,0.8143151793545765,2.040896717975035e-07,2.60552914709499e-14,1.350691248408189,1.245233897385674,0
1.611500504891173,0.8092828899956223,1.262545592635483e-07,7.919270843151912e-15,1.311399315242359,1.304819754368052,1
0.7584182741572603,0.8077148643079015,5.931458658562158e-07,1.474698050695639e-13,1.485129082696198,1.167892153689235,0
1.439793865287182,0.781862096933251,5.26656830460705e-07,1.313414813328735e-13,1.30529336560497,1.304546497686811,1
1.40667030694402,0.825334106686725,5.267774240195595e-07,1.762898634057257e-13,1.400842625548911,1.188768112502398,1
1.616503227932418,0.7986518591860088,3.733462449138726e-07,1.9216624896040142e-13,1.383842027306813,1.215419741470108,1
1.806442059485706,0.8245232306905882,1.562184585102271e-07,1.902240153926269e-14,1.385775563634988,1.222062343184882,0
1.511597503781103,0.8137778200041956,1.7251822770231e-07,1.313915460825672e-14,1.386620271049706,1.203748990686812,0
0.9012526006894506,0.7858561968422211,2.912933414235917e-07,3.362651373429573e-14,1.30097531984833,1.285641320702202,0
1.627005153134181,0.8313491059847654,2.394030474965976e-07,3.0665924039772813e-14,1.376341123375909,1.21820023377439,1
1.753522798055474,0.8471807342095019,3.420119570293772e-07,7.910117848915032e-14,1.406985484562367,1.218794512160047,1
1.573674026960365,0.8126892886423401,1.240505538758592e-07,7.365579639333962e-15,1.2939859984301,1.294375373431421,1
1.213274021751878,0.8106507781219635,5.981424670640939e-07,1.494324157157134e-13,1.357680690655715,1.238351157956706,1
1.822054559513094,0.8280302732489784,1.256420054361473e-07,1.3430931757891271e-14,1.354111001868186,1.284351208894207,0
1.462766861882711,0.8203335418151863,2.933369045122633e-07,5.2571990781048625e-14,1.432811746116047,1.190010677908538,0
0.5976737932756084,0.827802722184933,1.128213084583906e-06,1.581415567569714e-12,1.449585514284794,1.168332235303345,1
1.791861188926798,0.8253155547364612,1.81143673098192e-07,2.6887416626240143e-14,1.387002365390093,1.213252205535267,0
1.712066314342294,0.8275371778606583,1.222394786060032e-07,8.797109490207171e-15,1.306189433189326,1.359779451802591,0
0.8261278570838132,0.8030130272520911,7.741812550002055e-07,2.329462033775243e-13,1.380242278352486,1.243464386709305,1
1.379156401464557,0.7817270678929327,3.817258281363252e-07,6.242678270174652e-14,1.27963296954063,1.365758321656102,0
1.091360620387802,0.8078414778864244,1.150660049067387e-06,8.138838115942197e-13,1.423328984616177,1.219380554172372,0
1.618615852516116,0.8193306893684206,5.87118036834217e-07,2.7171989457968913e-13,1.340738639284326,1.304832102546795,1
1.825239711525241,0.8432027134078979,3.886512006785772e-07,5.477271075725612e-13,1.311299802978021,1.46895321483694,1
1.685206514565966,0.8222834515858992,6.436227103198455e-07,3.211880333657437e-13,1.44150702806299,1.160396185579988,1
1.713252239241042,0.8460756761786802,4.664656904797736e-07,1.440618703573322e-13,1.436629135753563,1.204431159388763,0
1.0147511936572,0.7694153886131538,4.41088274226097e-07,6.639236015245802e-14,1.251869582096353,1.351811008398816,1
0.4327150709523244,0.8108156915030756,1.97508856634515e-06,2.134110206502026e-12,1.369072823556646,1.247178409668932,1
1.139289266183589,0.4347857256285387,8.625312489463919e-07,3.6871558753665156e-12,1.460825093679002,1.155099719797391,1
0.2338915254098421,0.805209031528663,3.413364351585571e-06,4.010147434357885e-12,1.315476223388265,1.243160114461777,1
0.4017232924879363,0.4716251891276285,1.027018240974885e-06,4.841775659958402e-12,1.477875012307632,1.159243444901338,0
1.524074003930261,0.8053627970184989,1.78854694350904e-07,1.6063228660343072e-14,1.371360534769436,1.243228913149579,0
1.407243069465959,0.8081671007368583,1.72396784647494e-07,1.2617735958061062e-14,1.302955530222943,1.312581375424175,1
1.170318318453759,0.7902967998751934,2.245737253041094e-07,1.853174751954469e-14,1.210686562503455,1.334860643948697,0
0.607430675946617,0.7956876055704565,8.490687286262159e-07,3.05241879516276e-13,1.366706964024053,1.239877640419257,1
1.107614070981105,0.7845218050996766,6.951820370370461e-07,2.635507455716441e-13,1.385210030550301,1.250665691915277,0
1.193491854443442,0.8148247206323687,4.01121902598671e-07,6.351052459197173e-14,1.337217077620759,1.237791496585936,1
1.625288352720238,0.8233739265529314,1.186714144744729e-07,7.506839372728259e-15,1.312654376174606,1.314053317087055,0
1.135462358111508,0.7826231263773756,1.199224271317187e-06,5.105182813013654e-13,1.23217499179875,1.278328411190741,1
1.8426122033186,0.8267163395427349,9.307216401341438e-08,7.454613821539932e-15,1.437498951367884,1.179142948546985,0
1.175518675725357,0.7846754260094797,7.771493905909811e-07,2.318152782197345e-13,1.303618395281001,1.303322493084324,1
1.182250918792144,0.7889925852792731,1.128091589551005e-06,4.625866499343902e-13,1.264995943646502,1.370502892640826,0
1.084916589491228,0.7923329579928987,1.057387016694081e-06,3.977725873156238e-13,1.33713939947638,1.256635741559641,1
0.6996503044467529,0.8200968477447179,5.240867827580797e-06,5.1774965050539206e-11,1.435708718052653,1.203160915812358,1
1.772204105691013,0.8258099120576267,1.019500996932599e-07,6.5020983079480355e-15,1.330896948088282,1.267183586546974,1
1.199989689076113,0.6434000318435416,7.354544463175096e-07,1.746729511787958e-12,1.432914861212877,1.201835870318118,0
1.434933640032083,0.6989113030994968,4.121293253917993e-07,5.003177642752245e-13,1.381519880469402,1.18633737999408,1
1.872983763920403,0.8289577091426827,9.733676126605507e-08,6.562888459371572e-15,1.376562344118638,1.259344398818811,0
1.092860063189167,0.8513115030723598,6.637473888233284e-06,3.570470002430661e-11,1.462528627734723,1.178197795513402,1
1.78081197546281,0.8360268562825388,1.762842388601622e-07,2.0007336050258863e-14,1.341742999182016,1.267543072268328,0
1.492695877950488,0.7884858500126498,1.503547502085772e-07,1.147814340830301e-14,1.298889764113069,1.307636252092388,1
1.639458471954286,0.7822365623466185,4.895619048380213e-07,6.057810112540179e-13,1.473108668537159,1.163217504635085,0
1.42783311591453,0.6285115249588379,3.018101164888029e-07,3.350045762989569e-13,1.448324015573599,1.179396878127212,0
1.359087288747121,0.826926848951958,4.016596061578308e-07,7.10154921745951e-14,1.365274515880299,1.223238711983381,1
1.550304843482617,0.8232621351701918,3.298892552442683e-07,6.981328351475686e-14,1.442165184946976,1.197078944987781,0
1.401070053255197,0.7950224043159484,1.145558069907537e-06,6.173407352596831e-13,1.388207094935315,1.212519307455148,1
1.707863615932276,0.8394452780069945,2.52841953880942e-07,4.2746854652742457e-14,1.409774491356037,1.208712205850696,1
1.159311234053057,0.8139900435544197,2.515777122257202e-07,5.2557660357380765e-14,1.430715603565439,1.179849092336905,0
1.56953220711018,0.8102460756375158,2.377409820223557e-07,3.673258730373501e-14,1.270507392117469,1.487040660656071,0
1.590918457677335,0.8296402490097214,8.079532805351038e-07,3.316911057684523e-13,1.440468539508555,1.181459584008475,1
1.61221846081564,0.8047089773048467,1.357657108567601e-07,8.757315272317322e-15,1.336509029367669,1.279643834591945,1
0.37659255128421,0.8249754664871591,9.500110925046748e-07,7.888602578155096e-13,1.479340473133993,1.154060190764236,0
1.783919206836334,0.8272845420297964,3.713189548685489e-07,1.555374315233799e-13,1.407375807557163,1.20691517658216,1
0.9269218068265038,0.8017559092129736,1.032745934747777e-06,5.146119210827664e-13,1.402273867078297,1.216199747464841,0
1.684057229356835,0.8216442585716184,1.459838933262641e-07,1.421561169346421e-14,1.394132122777972,1.215655177593185,0
1.297662579903299,0.4889364426511911,5.112352428166289e-07,1.074482905400957e-12,1.441385162997427,1.153078904574261,1
1.685899892012563,0.8299762834397524,1.008960569719068e-07,5.48392888314897e-15,1.385538884832059,1.250207320382953,0
1.571340511284829,0.8378396429425062,1.805081715011528e-07,2.32964639515335e-14,1.34111171480401,1.232333876826058,0
1.381521359995969,0.8050198170522229,6.02079456995718e-07,1.9202779259722792e-13,1.403079199405281,1.21023599336745,1
1.576342156714569,0.7982113935809747,7.707587879316264e-07,7.426325897881192e-13,1.379079026452284,1.229781805367615,0
1.69342447298045,0.8073308217930021,4.378593676118848e-07,3.520781468132772e-13,1.39065898523755,1.194462014632877,0
1.640547315468419,0.8276155515363203,3.093469875497235e-07,1.346501102423872e-13,1.417919752003494,1.192574804454625,1
1.678236977738028,0.7343370592486995,3.196476055291521e-07,2.482307445108165e-13,1.431039919315497,1.187672029309374,1
1.143648553293103,0.8343006015930807,2.345147908642073e-07,4.124964575502846e-14,1.415996807890991,1.202129480761356,0
1.006912628079453,0.788525047066397,5.009500607013987e-07,9.741398847269142e-14,1.34198857194762,1.284394991085087,1
0.9524646944235888,0.7677708579996396,6.720457484773746e-07,1.679270740463933e-13,1.337911364658827,1.244279196526505,1
0.6046926884589479,0.7932026881081153,1.085031262081578e-06,6.565927055988625e-13,1.339662638162538,1.225817855125853,0
1.460706171449297,0.803207773995617,1.423298075089511e-07,9.158504324883344e-15,1.309416791930914,1.304974665493845,1
0.225093975683504,0.8200648190377626,5.650025332118115e-06,1.2078854581173498e-11,1.383871116226484,1.192927639695303,1
0.8895532056484523,0.7905305593594947,1.949087010533826e-06,9.283445308197496e-12,1.486712323695172,1.173907397398327,1
1.584539166304006,0.5782495179758431,2.184453800027115e-07,1.8827475385426821e-13,1.403062563612037,1.189624063467462,0
0.5062058338186765,0.7994233015424005,2.367522019037568e-06,3.353066367188411e-12,1.380880472116923,1.214047433298139,0
1.462972003687881,0.6546753813169931,5.529537954845303e-07,1.13661236124061e-12,1.396926290787745,1.215107096820796,1
0.5595661352801552,0.817999671512404,6.529578368003609e-07,2.281656139919332e-13,1.448790147364138,1.177203035002178,1
1.658865506964365,0.8244819486744837,1.133640885959444e-07,6.575976020589772e-15,1.297378166075948,1.379064817061389,0
1.90341152078881,0.8343930042939418,1.012766603188974e-07,1.035907158278709e-14,1.490906154198287,1.148471161399868,0
1.45520299461291,0.822308127731155,1.647584151806505e-07,1.469902418384973e-14,1.362686908560784,1.279005709643325,0
1.461506324934017,0.767381150429008,7.991464284951319e-07,1.455159333201668e-12,1.408449877558307,1.198139166480474,1
1.32980555521652,0.7927702831801259,4.424296786914319e-07,8.21673255324182e-14,1.356209962333009,1.256190347013404,1
1.090575537702567,0.8038240881260876,1.20515208254859e-06,7.671232253916708e-13,1.444180452726773,1.184122153507624,0
0.3969428588764166,0.5461052952577855,3.065731450885064e-06,3.9005674955547605e-11,1.486911536410413,1.16992265712701,0
1.452350782743034,0.8223302215406716,3.404056649637212e-07,7.354511369169914e-14,1.393515127236909,1.209746442098577,1
1.546843707202114,0.817133707544739,2.959129776877322e-07,5.1768263179233925e-14,1.395152527317119,1.209318249836314,1
1.247438362362104,0.6034894923407309,3.755015653764196e-07,5.208189618504541e-13,1.445524883463275,1.172269708554923,0
1.547286218818385,0.6778183687895183,3.603477096140452e-07,4.007344210651851e-13,1.420178507488159,1.179231192700823,1
0.5924557875247665,0.4025422433353536,9.101388718033336e-07,3.983508028134525e-12,1.430236700455621,1.194077926254029,0
0.2706344749844337,0.618003917071574,1.857651161082261e-06,1.1901644072730529e-11,1.491463521728367,1.176683690792976,1
1.093289529185718,0.7828616249468148,9.926688888823352e-07,3.7532264629289373e-13,1.383673532987284,1.233123199382759,0
1.524157398675805,0.7949249352317859,1.560667202059621e-07,1.2008815308344991e-14,1.336910540740336,1.267177285482593,1
1.603027370544332,0.7784219796267549,5.582488376312272e-07,1.464696054752354e-13,1.286137717450326,1.437225080652121,0
1.616043121884353,0.8212014108683672,2.098845628140199e-07,6.600186705560104e-14,1.39654180685342,1.219810958063314,0
0.375927725079746,0.7787832715897784,8.136282079626681e-07,3.663023324157225e-13,1.375865894339375,1.20837251151781,0
1.820576182387601,0.8321489774453736,1.137600421523778e-07,9.55811641648953e-15,1.424232739699263,1.221099190187142,0
1.764713425282004,0.8400704844126292,2.638736102140372e-07,4.535245551013459e-14,1.432502734339396,1.192743795223039,1
1.262612486379904,0.794654490664091,1.618163980029645e-06,1.779514669171529e-12,1.412213884249792,1.215558632843914,1
1.858263334293816,0.834443473525777,9.507487916059872e-08,9.057334167251416e-15,1.428361439051248,1.196378590894903,0
1.336470918862374,0.7810416248226199,3.410584018652315e-07,5.5093159276106505e-14,1.3128423763311,1.301886826053328,0
1.409895322591588,0.8156447153240493,1.031232506669885e-07,4.3059563073254856e-15,1.225049735597863,1.341422416165949,0
1.086306665668121,0.7941996931446628,2.126494791724204e-06,4.687874592939289e-12,1.420972803330216,1.184984168493509,1
1.678080073480972,0.8276819856490895,1.556195178002341e-07,1.3108474844451792e-14,1.395554406028636,1.217812049955729,0
0.837301508027041,0.7417689938451911,9.329827223413496e-07,2.160121519829165e-12,1.392655429929691,1.199217848432301,0
1.335996834641878,0.6881765067654684,4.500942750870987e-07,4.779103162911303e-13,1.429728821251229,1.18638156635704,0
1.332577737213833,0.806274745792829,2.106387088923112e-07,1.9728994741389433e-14,1.348828997002834,1.257238188045233,0
1.649910246152189,0.8137379247651593,3.281757556154351e-07,7.69477720948893e-14,1.360994708154281,1.240318866968134,1
1.481627864525061,0.5751086327935416,5.554478326756032e-07,1.348498737233332e-12,1.467682666117832,1.169093293438435,0
1.622995403901367,0.8132181065307287,1.734075668706537e-07,2.212767357965466e-14,1.39040705321494,1.208647823021709,0
1.626681314168215,0.8116144681703763,1.505707412033048e-07,2.0833864353702233e-14,1.400073717861136,1.217095268241462,1
0.8211633772575079,0.6920264293749319,3.817191092190664e-07,4.761837127679227e-13,1.523238655413435,1.14733131669736,0
1.590944881399726,0.6056983190871089,2.150299269052739e-07,1.8035299367749482e-13,1.435838822019068,1.16767613070109,0
0.1717642732723557,0.4760602594765815,3.946075939591045e-06,7.064749916270589e-11,1.483463750991106,1.176843151840931,1
1.413918290593081,0.8018338683691228,2.642489454199182e-07,2.977152408333777e-14,1.372456404542106,1.218684189349353,1
1.331760555247803,0.7999400375584579,1.025571089321779e-06,6.890936049847208e-13,1.316616445676896,1.320819134278096,1
1.033098052474662,0.8200217061426511,7.326576258171937e-07,3.840766494143112e-13,1.381568181214311,1.213978936252876,1
1.776490563675754,0.8403711742013039,2.476931682454821e-07,4.4389594873123687e-14,1.36672971462636,1.239154275025722,1
1.462361828339813,0.8048696499563728,1.778487064418985e-07,1.37370961615495e-14,1.349936243185535,1.234758963161716,0
1.742921407593,0.8103486736106326,7.127988895509931e-07,6.036444965581587e-13,1.454858858229205,1.182395581543699,0
1.545643263263731,0.7923549891739372,1.860134614000445e-07,1.91196341371607e-14,1.379654229145827,1.221411082023015,1
1.293521016239059,0.81522813778518,2.694314898010387e-07,2.3149056869885943e-13,1.281884712773572,1.484249273508655,1
0.2424895177607052,0.8554638468717533,4.259547693341463e-06,1.6644082130172348e-11,1.485547771872726,1.16914004040083,0
1.616545935113153,0.8343763941264144,8.289809988714382e-07,4.632277058362779e-13,1.371559967871013,1.233594704321026,1
1.133247467150021,0.7885760388941209,1.051214526437401e-06,3.955304303480207e-13,1.309646445131842,1.24476404040755,1
1.468399154775301,0.727082410194941,3.451401223860788e-07,2.800322792030475e-13,1.408228297569255,1.200478361968955,0
1.808501809409798,0.8174133047800384,1.66916429507949e-07,2.9850907364513365e-14,1.362475043062541,1.225707019959985,0
1.434130759103648,0.8101423317644164,5.99807327000832e-07,3.122202055463694e-13,1.367957416060982,1.194487934857238,1
1.831815918470916,0.7942329951534295,1.337257877152623e-07,2.8134591450791784e-14,1.420963469525437,1.196298236436757,0
1.462546304676121,0.8468215641242022,1.56465995110677e-07,1.9183934719337362e-14,1.458745663015258,1.171071422750353,0
1.123151763126444,0.7853822171716306,1.175390517715692e-06,4.821218875196911e-13,1.322913969176375,1.26126088509142,1
1.526749428513299,0.6914201867299572,3.747500619051796e-07,4.254299408932607e-13,1.406542084480027,1.197192591202214,0
1.17167128313895,0.8214060827070213,2.3441427744605e-07,2.6551044804422622e-14,1.405654022106732,1.207954317281006,0
1.699027393322653,0.8202056620760718,1.490287955189331e-07,1.225962754947394e-14,1.308128442117901,1.327234113203582,0
1.31025668297483,0.5013208244783582,5.421998285701795e-07,1.174956521849465e-12,1.433069529865133,1.174002504940792,0
1.279154676933062,0.5799871436622375,5.960424129167935e-07,1.7466717304516e-12,1.389098927809564,1.216876232145649,1
1.396232811683545,0.7932636429775958,6.762988202715471e-07,2.2206264672336799e-13,1.294151659658862,1.315364797726034,1
1.244184271765958,0.5976884822499385,3.136827051184953e-07,4.015447774342756e-13,1.447811317510211,1.175514958437697,0
1.042290561724792,0.5871421892675345,4.801379988447928e-07,8.556389951999327e-13,1.410706793175736,1.181315957251013,0
0.505283440905291,0.8056393173414907,2.289170298960642e-06,5.091627386979452e-12,1.430793418371195,1.178311052607618,1
0.697678543688415,0.7996144687896679,9.270565266694014e-07,1.151778126009682e-12,1.363901940799248,1.234226575956715,1
1.213180339660944,0.8156958956063313,3.08335743408801e-07,3.8503937939815616e-14,1.36331484762199,1.229932272179564,1
1.606440288395791,0.8333145785193928,1.907053586327797e-07,5.968685924019093e-14,1.285376937620564,1.665223764328352,0
1.091993201757905,0.8185260694557778,3.660489011986621e-07,1.3238388949293332e-13,1.416803875242761,1.209646639030078,1
1.083212194073164,0.7866368114763524,5.491380469532778e-07,1.326902615367633e-13,1.32182641576472,1.275023711465293,1
1.706243771421246,0.8313917212641255,4.057321933711411e-07,2.9147726330319593e-13,1.383019159357135,1.232533387962129,1
1.678878766284931,0.8430378037728241,2.715151435996748e-07,4.420191269386118e-14,1.431263537016328,1.18131965234926,1
1.203935359110834,0.7808588846405243,3.175085247157538e-07,3.9235692014511334e-14,1.26337393916225,1.349110488927607,0
1.745270227919552,0.8350453606119869,6.289117842672917e-07,2.8262002535550543e-13,1.466006260722305,1.155001819777536,1
1.44066777087067,0.8200333277723696,1.544799875475269e-07,1.0760147697016291e-14,1.356235904426977,1.240454959206055,0
1.739002379422644,0.82864176790927,2.735546612079842e-07,5.381897211083982e-14,1.370955839961215,1.229772972204809,0
1.573449895497915,0.7140889030270329,3.514344022586726e-07,2.7558657729449793e-13,1.368453470951892,1.219069128056469,0
1.67938826296254,0.8261122265267926,1.423498136274976e-07,1.1200754506988481e-14,1.358090480785102,1.224154390131525,0
0.9858779670584438,0.7387292552877962,1.473875506468367e-06,5.258010229555794e-12,1.414767486816361,1.188030201814222,0
1.036365383832115,0.8228697924925148,3.981263524023479e-07,1.1474877783634332e-13,1.495528857372102,1.132128906602981,1
1.3114354695259,0.8081623241158447,4.770496947370602e-07,1.069261342741762e-13,1.314749802686189,1.264533280807594,1
1.802506164802421,0.8379608166387746,1.388887099810372e-07,1.502796343256722e-14,1.446720460244207,1.180317466019914,0
0.6849050479138954,0.7932169712120426,1.425713986198179e-06,3.673507168957939e-12,1.463045259947676,1.186263271382919,0
1.299226140225638,0.7936445274168924,2.092234081884903e-07,2.179503773769005e-14,1.319669790465259,1.319670366988584,1
0.3756222970731511,0.8287732441437051,3.080861088333973e-06,1.3894634853032719e-11,1.455691816431571,1.181655078388637,1
0.7985258451267784,0.826830082761691,1.490275517885409e-06,1.178737109295132e-12,1.408828810357728,1.216982304000948,1
1.841491285499915,0.8209802069520644,1.573728784438181e-07,1.927192568107734e-14,1.335272197914098,1.24524731523855,0
1.187241429676872,0.4754403728518856,7.415566343655254e-07,2.632444302828662e-12,1.478330672137629,1.151247540975165,1
1.289777935185768,0.7718461668297577,2.521957757921264e-07,2.9311934642430445e-14,1.248520332636775,1.393834772717459,0
1.15298138612182,0.4783647642574486,7.041680642235311e-07,2.259731580133853e-12,1.448579275523928,1.17819368100211,0
1.623778517579067,0.8191028650336301,1.448926627542044e-07,1.1894056369815331e-14,1.360493225748023,1.246908881041733,0
0.5232327405635238,0.7185644722932614,1.318015937054509e-06,4.2663053794593646e-12,1.424400510689577,1.187672831620351,0
1.326246691606291,0.7904649884416816,2.499881234103799e-07,2.4434937684720443e-14,1.317975651870158,1.298065882637128,0
