sample_entropy,shannon_entropy,rms,mean_rr,sdnn,rmssd,mean_hr,Label
0.6595093614738134,0.9095030601656734,0.0002348971347945,0.74609375,0.0390234179491943,0.0333547531389759,80.41884816753927,0
0.4093392913119812,0.868939612796123,0.0001536794055311,1.107638888888889,0.0383519479763446,0.0579092287427911,54.16927899686521,0
0.6666979604834008,0.7938854653581131,0.0001810450950859,0.6918604651162791,0.0213988835237433,0.024442309027345,86.72268907563026,1
0.769241868895997,0.9216342091499252,0.0002024413614555,0.7034970238095238,0.0711130104762794,0.0870470202530779,85.28820729772606,1
0.4904963054656421,0.8311310702662047,0.0002995989107585,0.7662337662337663,0.0254875299806941,0.0308360744395603,78.30508474576271,0
0.4349509407788887,0.8630143131266954,0.0001665129198072,0.8627717391304348,0.0301985200691479,0.0305528862841813,69.54330708661418,0
0.4796358166604989,0.9345393274543315,0.0003081920261917,0.8433098591549296,0.0727684740687203,0.1049154634183432,71.1482254697286,1
0.589589350980988,0.946090017125748,0.0002353627075533,0.8843283582089553,0.0661294412631933,0.0600859548455125,67.84810126582278,1
0.2551546741018102,0.8849900142836653,0.0003826832694591,1.031788793103448,0.1070789448712972,0.108015517281936,58.1514360313316,0
0.6720933991788656,0.9269614836052584,0.0001493117435279,1.017780172413793,0.066446537972952,0.0664848122743675,58.95182636315511,0
1.159720274708892,0.8032966669061343,5.205362811125792e-05,0.8340669014084507,0.1549320782448618,0.2163774397403099,71.93667546174142,0
0.3832475317351026,0.8477333568624404,0.0003464600877896,0.7678571428571429,0.0324167622527854,0.0295595407164661,78.13953488372093,0
0.5616748585082678,0.7928931910493721,0.0001818473815117,0.7217987804878049,0.0237139469300366,0.0314423095074215,83.12565997888068,1
0.6341149321684438,0.902375560468216,0.000163012866444,0.9005681818181818,0.0330491067549529,0.0367717753384095,66.62460567823344,1
0.7033680072257952,0.9282839065466534,0.0002309723936766,0.7291666666666666,0.0439205230578941,0.0382732772309871,82.28571428571429,0
0.689324430215813,0.8832882575131742,0.0001399892863571,0.8763786764705882,0.0380602389371658,0.0414718705242013,68.46355532249606,1
0.913719441665336,0.8494303043990098,0.0002231238562695,0.7036764705882353,0.0247281937070591,0.0243498038273118,85.26645768025078,0
0.8057141306298982,0.9213947877061957,0.0001378287823846,0.8535714285714285,0.0912681698432186,0.1443375672974064,70.2928870292887,1
0.4530986489772513,0.8974397746136256,0.0003256466079092,0.8609601449275363,0.0334532342619916,0.0283589129054071,69.68963703314046,1
0.6446891522509482,0.88493788958049,0.0002688210210128,0.7160823170731707,0.0289558919948347,0.0205419436913181,83.78924960085152,1
0.9252010127528996,0.8988645460057005,0.0003366245116563,0.7742598684210527,0.1710580678222689,0.1834280058587928,77.49336165693043,1
0.6482737545520968,0.9349799903047468,0.0002064114539781,0.741015625,0.0668767796930248,0.0782238298940363,80.96995255666843,1
0.4175452434476713,0.9221784538554604,0.0002003161028205,0.8986742424242424,0.0613194870172805,0.0373796144565868,66.76501580611169,0
0.4974227711812821,0.9444342855099722,0.0002743797337972,0.8673007246376812,0.0688376000499314,0.0660742674838655,69.18015665796345,1
0.7121575064251982,0.8100935472942704,0.0002412040993392,0.7858333333333334,0.0329509315329459,0.0334921960454364,76.35206786850476,1
0.5564667040002926,0.922660625695084,0.0002427282433833,0.957157258064516,0.0499602510120942,0.0475110535025064,62.68562401263823,1
0.3820075987042403,0.8272933555556683,0.0003508990855155,0.8632246376811594,0.0250121399845726,0.0321559847142204,69.50682056663169,0
0.5364677473940784,0.8572905298291962,0.0002635928803021,1.027478448275862,0.1750613333683244,0.1469257331192585,58.395385422129,1
1.198441228985761,0.9436139342864556,0.0002206046382664,0.9864583333333332,0.0875309964939405,0.0826797284707684,60.82365364308342,1
0.9763907352675572,0.9114722752467111,0.0005914503964038,0.7731331168831169,0.1830784534142966,0.2227662326473533,77.60629921259842,0
0.6838861642749418,0.7901596275444518,0.0001955703475154,0.7337962962962963,0.0163682125274663,0.0247052942200654,81.76656151419559,1
0.5164182233463452,0.9490193652650928,0.000265583150511,0.955141129032258,0.0941893214121437,0.0961942301701759,62.81794195250659,1
0.3578782039328,0.8193583049401277,9.398088279264493e-05,1.030172413793103,0.1935070011591878,0.1634838636814366,58.24267782426779,0
0.5725577336359156,0.8494954499519829,7.102332675526885e-05,0.9434523809523808,0.1237358125356393,0.1929239022424428,63.59621451104101,0
0.8005485282345172,0.8160281360286424,0.0002140383100974,0.7933333333333333,0.0353160335006951,0.0328958481320108,75.63025210084034,1
1.688931734192011,0.9172974014413866,3.432242096489393e-05,0.8596014492753623,0.1657546823110724,0.2243249677955412,69.79978925184405,0
0.6686914051665395,0.9169121893579768,7.185547173899668e-05,0.92529296875,0.0990705690196337,0.1132224378668289,64.84432717678101,0
0.3842843734185933,0.9496015241168942,0.0001837244160428,1.007415254237288,0.1263616230004516,0.1214473598185508,59.55835962145111,0
0.6978242492194522,0.920944569396862,0.0002428736518913,0.7068452380952381,0.0538908302447375,0.0240109318727447,84.88421052631578,1
0.6579554979949288,0.921688868248886,0.0001766203873613,0.7747564935064936,0.0299390878920584,0.0326574500849749,77.44368779465688,1
0.4005135628919764,0.8673763760537486,0.0003485701812781,0.8514492753623188,0.0516939604107981,0.0713012586515421,70.46808510638297,0
0.4377906819993037,0.913266346182913,0.0003144700299466,0.8777573529411765,0.0838414664116265,0.1289035998709946,68.35602094240838,1
0.5868176929896817,0.7526421368165576,0.0001844901770784,0.7263719512195121,0.0179722959185237,0.0273403051180965,82.60230849947534,1
0.5475594543213346,0.9149019777649776,0.0001876319293408,0.8843283582089553,0.0500742584567269,0.0405265415275201,67.84810126582278,0
0.8155085975433034,0.7778134650720389,3.270331232847487e-05,0.9464285714285714,0.0774381656622481,0.0675854447252489,63.39622641509434,0
0.665856471399689,0.8895372550052578,0.0001634031258838,0.7981418918918919,0.0309057001073175,0.0333217374236624,75.17460317460318,0
0.4936300103072844,0.9459031344981412,0.0001460115691693,0.9921875,0.0671753865049047,0.0645839028587973,60.47244094488189,1
0.3538684342262849,0.8608413572116221,0.0002024318914189,0.8982007575757576,0.0262645421370429,0.0297727773180596,66.80021085925145,0
0.6502768501299799,0.8743531726611442,7.296355439038008e-05,0.941468253968254,0.0826782405020022,0.1004808248839292,63.73024236037935,0
0.5081182621085442,0.87957488786675,0.000152311989386,1.049890350877193,0.0812920878514342,0.1082531754730548,57.14882506527415,0
0.734265015206584,0.9043356956665104,0.0001282163054291,1.064174107142857,0.0850542358434727,0.086766405312823,56.38175144205558,1
0.4992473132439963,0.3857599073915585,0.0003057422599723,0.7853618421052632,0.0412907572718197,0.028641098093474,76.3979057591623,0
0.7218745463892591,0.4438504166371721,0.0001194058862244,0.8367077464788732,0.1319791515887133,0.200863093033183,71.70962651236191,0
0.2881938500821077,0.8880425659960871,0.0003466928248878,0.9702868852459016,0.1001769421874915,0.1156672220207609,61.83738120380148,0
0.6832290344293939,0.9403332296450636,0.0003049093024871,0.8250868055555556,0.0504051839492942,0.0555066294733607,72.71962125197264,1
0.4449499021961508,0.8743136468930102,0.0003122143874602,0.8272569444444444,0.0416576234399369,0.0365263868541595,72.52885624344177,0
0.4216262790749584,0.9042062276140186,0.000197857974774,0.8546195652173914,0.0411515097521758,0.0325995364907503,70.20667726550079,0
0.6755852557238504,0.912717536307306,0.0002345311622025,0.9586693548387096,0.0407736863228965,0.0366711683774042,62.58675078864353,1
0.7801024328189143,0.919427868118981,0.0002834695539842,0.694485294117647,0.0475445975303741,0.0472455591261534,86.39491794600318,1
0.5352569216320475,0.8644492356046324,0.0002779484475135,0.7875,0.0314576434802947,0.0279035955011516,76.19047619047619,1
0.4517966971228914,0.9078503717756932,0.0002749435875912,0.8207465277777778,0.0499546928937646,0.0449655090824317,73.1041776837652,0
0.6388651953040716,0.4476007346276308,0.0002041171021764,0.7727272727272727,0.0562266283598601,0.0654131920241588,77.64705882352942,0
0.597066832659984,0.8976153567568022,0.0002178099699488,0.7559335443037974,0.0369005186076545,0.0352062945093192,79.37205651491367,0
0.3713882877001036,0.9366355413266448,0.0002669135529934,1.002648305084746,0.0471963334956471,0.0615498904029949,59.84152139461173,1
0.6117123433694182,0.5325721221455332,0.0004378347182442,0.7977195945945946,0.0558598927926703,0.0498821384838904,75.21439915299099,1
0.6641625135061685,0.8906440835061741,0.0001907007670197,0.7364969135802469,0.0290250661632778,0.0338741927948106,81.46673651126244,1
0.7917069141161179,0.9094023297314392,0.0001310614520458,0.7883333333333333,0.1149698027986286,0.1482317653203928,76.10993657505286,0
0.4817647653462424,0.8573336858949877,0.0001839566643873,0.8815298507462687,0.0267449089306556,0.0302882302873474,68.06349206349206,0
0.282349833422338,0.8371662346561299,0.0002906759791389,1.022629310344828,0.0305928223417637,0.0338805143760534,58.6722866174921,0
0.4352330543535999,0.9122189266525094,0.0004013496176833,0.8996212121212122,0.0762589940351827,0.064627259668871,66.69473684210526,0
1.003250926739496,0.7876591706418249,6.006384936632741e-05,0.8800551470588235,0.1797262821093808,0.2490068894029827,68.177545691906,0
0.4091989884017941,0.9055891296881772,0.0003328807692332,0.84375,0.060917464655056,0.0468372432480015,71.11111111111111,0
0.6082843139707812,0.7813216139640501,0.0002633986209728,0.8146404109589042,0.0174098453832729,0.0247052942200654,73.6521282186022,1
0.4311619088865999,0.8982492471179723,0.0001934103159168,0.8800551470588235,0.0456677548583451,0.0416472280527481,68.177545691906,0
0.5664764570127604,0.88736939645232,0.000198944070648,0.768262987012987,0.054558497976643,0.0330485712128455,78.09825673534073,1
0.7411559663364444,0.8766251128383684,0.00025687111488,0.8229166666666666,0.0329403922934206,0.0248786668328566,72.9113924050633,1
1.765610414681184,0.9064153846738716,3.327189302960874e-05,0.8371478873239436,0.1821353658947682,0.2499441901991037,71.67192429022083,0
0.5116468049885451,0.9549257223190184,0.0001615814081083,0.9586693548387096,0.1725175118167855,0.0820967853946252,62.58675078864353,1
0.2712781682247893,0.8743955825319735,0.0004291396274969,1.026939655172414,0.0813345622332486,0.126430954216958,58.42602308499476,0
0.6427733503846611,0.822001998423788,0.00015132845449,0.8233506944444444,0.1751704064168373,0.2478172760094267,72.87295730100158,0
0.4291736979775301,0.8990628917873604,0.0001766165724483,0.954133064516129,0.0534583180584743,0.0535317720120873,62.88431061806656,0
0.4704481414149355,0.9462345497790527,0.0003428993483028,0.8446428571428571,0.1047120078684233,0.0747694221290177,71.03594080338266,1
1.253433943433535,0.9335062046259764,4.581698828191322e-05,0.8591485507246377,0.1717924858260844,0.229889679424463,69.83658408012651,0
0.6727020714100268,0.9131239680849372,0.0002777766429052,0.7580128205128205,0.0593002856156358,0.03125,79.15433403805497,1
0.4421066836217369,0.8632453693143779,0.0002208431500931,0.853125,0.1211862405998069,0.168915981173044,70.32967032967032,1
0.4091156019299125,0.9031574907933596,0.0001981506594339,0.923828125,0.0357480570658654,0.0452341790284841,64.94714587737843,0
0.4689677103140437,0.9065484954658132,0.0001603963861928,0.8894589552238806,0.0589792778720749,0.0333126119305641,67.45673833245935,0
0.7233563110886067,0.9332723704956308,9.16956172389032e-05,0.8345070422535211,0.1550920442960495,0.185818351680959,71.89873417721519,0
0.7585195831248736,0.909628811484112,0.0001411327644767,0.8754595588235294,0.0380824282636023,0.0464454824048679,68.53543307086613,1
0.6036915164044931,0.8968393764460932,0.0001913064832721,0.7751623376623377,0.0314679739853573,0.0347541885018346,77.40314136125654,1
0.4168279435513132,0.8529218095565954,0.0001622391370475,0.8477678571428572,0.0288939662951507,0.0344798302729606,70.7740916271722,0
0.7601002138650224,0.9275718480056856,0.0001797319958201,0.733984375,0.0398341747072708,0.0227856342150548,81.7456093666844,0
0.6205649258253133,0.8914910674891106,0.0002140611064925,0.8713235294117647,0.0395754598191378,0.043193421279068,68.86075949367088,1
0.3285145013512287,0.8108559652631779,0.0002079423857603,0.93017578125,0.0263445721879222,0.0329403922934206,64.50393700787401,0
0.5071128672551768,0.947382285079464,0.0002013512041488,0.92724609375,0.0665335836865767,0.0457453159194624,64.70774091627172,0
0.3731564390917552,0.8757405352425297,0.0003247089939621,0.8618659420289855,0.0602882655517888,0.0545231248160437,69.61639516552812,0
0.3670025572985095,0.938228498536532,0.0003495449855314,0.9005681818181818,0.1042010962384767,0.1165406828932745,66.62460567823344,0
0.510720056916973,0.8091000248580569,0.0001993531780569,0.7891666666666667,0.0255631027502966,0.0274265758127187,76.02956705385428,1
0.4945376107787681,0.8761363513536609,0.0002453847984784,0.7920833333333334,0.0295334085777822,0.0363273871074435,75.74960547080484,0
0.7107590039004189,0.9157248373301357,0.0002183864574806,0.8259548611111112,0.0438325080401728,0.0275044010562816,72.64319495533368,1
0.4776587881863833,0.9004285468629424,0.0003310285101609,0.8663949275362319,0.0515509176635224,0.0357511954756925,69.25248301097751,1
0.3042580533039143,0.7918845188381898,0.0003683961843099,0.8892045454545454,0.0920267470701238,0.1269676859253203,67.47603833865816,1
0.7970494951310023,0.6665265556721378,5.173213715824059e-05,0.7883333333333333,0.0207749181038631,0.0288339696201208,76.10993657505286,1
0.5294770969960602,0.7602913716966067,0.0002531140589269,0.8070101351351351,0.0194669435331353,0.025862684018824,74.34850863422292,1
0.4184160992772114,0.8940723088221647,0.0001685976275382,0.8517857142857143,0.0537867695779608,0.0327968604895501,70.44025157232704,0
0.6969407504315703,0.9465472422098012,0.0002064372245125,0.8986742424242424,0.0495781822451076,0.0406527272242494,66.76501580611169,1
0.435928740614486,0.8514336874619393,0.0002510684891088,0.9774590163934426,0.0180106514664415,0.0184877493221863,61.38364779874214,1
0.2875063314233075,0.8315546077324184,0.0002388430633375,0.9718237704918032,0.0458668632901626,0.0490800791224572,61.73958882445967,0
0.7755166199177633,0.9065722029745628,0.0001276366159673,1.108217592592593,0.0781164261413262,0.0811047322561367,54.14099216710183,1
0.6800635387118791,0.7991384707331384,8.330357851661417e-05,1.046052631578947,0.1876009654290641,0.2195854581649249,57.35849056603774,0
0.657078269825093,0.869282284377163,0.0001825053188004,0.741796875,0.0230402532860291,0.0238459918878188,80.88467614533965,1
0.6986404613648775,0.9124090098131994,0.000223890662239,0.7686688311688312,0.0303271780718659,0.0220970869120796,78.05702217529038,1
0.4282899701978613,0.8912972089655966,0.0002737594304128,0.828125,0.0459987545121242,0.0538718729689538,72.45283018867924,0
0.6428236597924212,0.9346270226424002,0.0001038264322601,0.8663949275362319,0.0827454452290527,0.0654189692988023,69.25248301097751,1
0.6722800039627954,0.8617423842070862,0.0002135221387065,0.8977272727272727,0.0401765216583265,0.041926274578121,66.83544303797468,1
0.220814918296842,0.80649255996602,0.0002616989662747,1.135817307692308,0.1292668129537238,0.124616445858608,52.82539682539682,0
0.7347177589917888,0.9193600875433912,0.0002093899755907,0.8035102739726028,0.0518492189336978,0.0273127304210977,74.6723494938732,0
0.3348260428969355,0.8418976435453074,0.000337188533266,0.927734375,0.0431017118959256,0.0440184507671102,64.67368421052632,1
0.5321882688756601,0.8964819689582666,0.0003598004365029,0.90625,0.0639046697681931,0.0780047150941728,66.20689655172414,0
0.6745021613793544,0.9110246748518712,0.000174911823267,0.8736213235294118,0.0423467933331581,0.0394915799640847,68.67964229352972,0
0.6687872649343508,0.914439535673172,0.000180079269902,0.7636217948717948,0.0294300763977675,0.0259264224897474,78.57292759706192,1
0.5360387524643898,0.8706047744189352,0.0001897817281406,0.8103595890410958,0.0962604467404989,0.0296920683619567,74.04120443740095,0
0.5934261513419656,0.8687299875581103,0.0001913344281577,0.8246527777777778,0.0319180144285594,0.0337877983435057,72.7578947368421,0
0.7304348292504702,0.7366814215868746,0.0001908660742061,0.6590277777777778,0.017207655129672,0.0256584633517487,91.04320337197048,1
0.5311835603476562,0.7978569749345386,0.0002686900148477,0.78125,0.0175609839671567,0.0213478140957491,76.8,1
0.5629024231074886,0.8045972691235231,0.0001445352827397,0.8958333333333334,0.0191043948880985,0.0257110422252325,66.9767441860465,1
0.5809669017191914,0.8016679276794417,0.0001953152827899,0.7440664556962026,0.0222786832916593,0.024514516892273,80.63795853269538,1
0.8258426392395365,0.9833516205926204,0.0001237058584854,1.011314655172414,0.2681138644514453,0.278495281307469,59.32871603622803,1
1.363083905107004,0.7732121563887003,6.303001038166079e-05,0.865036231884058,0.1590325385728711,0.2266179572086285,69.36125654450262,0
1.01221004446715,0.8852943055980536,7.045139495483447e-05,0.7153614457831325,0.0494729488730848,0.0545648668569983,83.87368421052632,1
0.6940962659368939,0.9514859663310188,0.0001346587828642,1.103587962962963,0.2060485894096399,0.2091473875451977,54.36811746198217,1
0.6233791852116677,0.912518542566017,0.000176137439792,0.8027871621621622,0.035192849070947,0.0420218876431781,74.7396107311941,1
0.7327177620313716,0.7798002860851765,0.0001953930389491,0.7644230769230769,0.0243568656307222,0.03125,78.49056603773586,1
0.7316092772133161,0.5617508642006888,0.0001384328752953,0.8129280821917808,0.0536282945063935,0.0668008090540659,73.80726698262244,0
1.266923343201885,0.90920643216302,4.884490044770078e-05,0.8852611940298507,0.1557724100024689,0.1990968599930469,67.77660695468914,0
0.4630818692739923,0.9272659741832197,0.0002668773900186,0.9189453125,0.0531935305913918,0.0539832057952888,65.2922422954304,1
0.5369681024712943,0.8421870906479936,0.0001954121923186,0.8036317567567568,0.036515898587006,0.0352719983820454,74.66106148187073,1
0.9023958137212976,0.9077052379986044,0.0001559273525502,0.7983333333333333,0.0323929862092946,0.0352207085506639,75.15657620041753,1
0.6375930617889227,0.4632331779917874,0.0002373076028942,0.79625,0.0738382240667618,0.0990212874669968,75.35321821036106,0
0.7785035178617976,0.8922037549158988,0.0002335987645988,0.741796875,0.0315391892569288,0.0255961361057544,80.88467614533965,1
0.5432035338968626,0.9030891754446884,0.0001055856953867,0.8857276119402985,0.0330860967368809,0.0410705462920481,67.74091627172196,1
0.7550035935292672,0.9426155530298208,0.0001233797557039,1.140625,0.0349385621484342,0.0315548852685875,52.60273972602739,1
0.8280563151955735,0.8255569848838126,0.0002138466699322,0.7796052631578947,0.0299459563421597,0.03125,76.9620253164557,1
0.8187409286212038,0.812913343613767,5.323845060868081e-05,0.8302951388888888,0.1779868486011838,0.2596084877299054,72.26346053319394,1
0.7849415784075114,0.7868160021219993,0.0001990705369978,0.6813936781609196,0.0200120521223909,0.0245323262058404,88.05482340537691,1
0.4560894684774276,0.7596981003828023,0.000222178654129,1.122051886792453,0.1147418385975312,0.134550980472659,53.47346295323173,1
1.270414089643642,0.924532981866302,4.922840410278156e-05,0.8362676056338029,0.1671353363018901,0.2270123305335763,71.74736842105263,0
0.69173138361233,0.9075559270938468,0.0002113593029647,0.7933333333333333,0.0326332737486687,0.0299563308293381,75.63025210084034,1
0.4600892964566125,0.9013430076475936,0.0003422568070377,0.8229166666666666,0.0570544330734548,0.0390735019717714,72.9113924050633,0
0.6124439322620586,0.809741415398336,0.000249027125908,0.8112157534246576,0.0239496587854441,0.0303695411189859,73.96306068601582,1
0.3005110258559441,0.89780014222482,0.0003443894508176,0.945436507936508,0.08890737743522,0.0973761102880922,63.46274921301154,0
0.2776477018238057,0.8693574416083002,0.000103548186958,1.080681818181818,0.2203021966555025,0.2046550281707135,55.5205047318612,0
0.7292421053449798,0.8483242288016266,0.0001413414588321,0.840669014084507,0.0315369438691423,0.0367863644186654,71.3717277486911,1
0.7080319050363709,0.8222889168051352,0.000221268855303,0.8690257352941176,0.0163062454036858,0.0229067708168072,69.04283447911158,1
0.7314050396030508,0.8946776020206798,0.0003416102787008,0.8233506944444444,0.0835218769133504,0.0738020525307154,72.87295730100158,1
0.4389265557338105,0.7991564777880991,0.00040149377347,0.957157258064516,0.163850801490055,0.2137154847025347,62.68562401263823,0
0.7312610253624126,0.9213247498599914,0.0001330904322623,0.8773320895522388,0.0282173198922652,0.0337538578042076,68.38915470494418,1
0.7583850784056307,0.8025326715843204,0.0002670413841428,0.8699448529411765,0.0296513392958429,0.0277939681258201,68.96988906497623,1
0.3699968071403978,0.9137478761285706,0.0003218310771611,0.8662683823529411,0.0890109803637977,0.0456541897016411,69.26259946949602,0
0.543898524613659,0.8742640880138188,0.0003641065179717,0.9110576923076924,0.0543290503327563,0.0666356332391874,65.85751978891821,0
0.4342553028058503,0.8909347173629226,0.0003552279799868,0.8645833333333334,0.0705155916907571,0.0594378537287674,69.39759036144578,0
0.7512392979247274,0.9086424882146864,0.0001258338070612,0.7307098765432098,0.0412502049525421,0.0283842220696639,82.11193241816262,1
0.4874053589233368,0.8934177184335035,0.0001713755181279,0.8307291666666666,0.0405949408023955,0.0363376187333631,72.22570532915361,0
0.9422760529960288,0.8857398629412573,0.000136766559332,0.75,0.0551447318943179,0.0322360459773901,80.0,1
0.3382129307467326,0.9048136375434448,0.0004431132633609,0.9484126984126984,0.0691319499610489,0.0847493933749342,63.26359832635983,0
0.5328386913919588,0.9049640956712024,0.0001293442251306,1.1875,0.0800390529679106,0.0898420169531165,50.52631578947368,1
1.32264998126234,0.9176275020243326,4.745857505304039e-05,0.8913246268656716,0.1478978760640725,0.2154444512003739,67.31554160125589,0
0.6416732153438153,0.7575525483222937,0.0001586052466514,0.9848958333333332,0.0875542366629901,0.0744640099053659,60.92014806980434,0
0.4773360338916539,0.8897814100905346,0.0001694610435663,0.8176369863013698,0.0670464728559561,0.0405113260054792,73.38219895287959,0
0.526896918343317,0.9014452819256318,0.0003505340758165,0.8972537878787878,0.0476623122433149,0.0576221528580805,66.87071240105541,0
0.7771725578855645,0.8453085432112243,0.000137779847172,0.7210365853658537,0.0199921906228719,0.0252781593377795,83.21353065539111,1
0.6722974176478561,0.8612100253472466,7.221011218135697e-05,0.8819962686567164,0.1662228627416138,0.2571480475741788,68.02749867794817,0
0.4727380767301217,0.7607009460856724,0.000252259361182,0.7966666666666666,0.0241379139299337,0.0292880758182427,75.31380753138076,1
0.8616485687777168,0.7145100810090158,7.435544914073021e-05,0.8252640845070423,0.1424425253955548,0.2036223307287994,72.704,1
0.2968221187479818,0.9076415563624636,0.0001659573356068,1.169730392156863,0.0584650021660615,0.0658478359553296,51.2938711367208,0
0.7102461457679451,0.7845208455915982,0.0002413621884117,0.7668269230769231,0.0258529900719578,0.0330258409254203,78.24451410658307,1
0.5622140064825969,0.7243538695449073,0.000280369646662,0.7674512987012987,0.01551790121291,0.0258490684958909,78.18085668958223,1
0.4581025606110698,0.9481263863941138,0.0001971660625742,0.908653846153846,0.0715361351979071,0.05859375,66.03174603174604,0
0.6342570081808755,0.8332659174570921,0.0001345082086951,0.8694852941176471,0.026223056282513,0.0272645107195438,69.00634249471459,1
0.2984490239767854,0.8887543570331957,0.000210540953172,1.119103773584906,0.0416425556203056,0.0544724480462724,53.61433087460485,0
0.4707054574077729,0.8468081253870111,0.0003420049342509,0.8233506944444444,0.0325925674181497,0.0376391198764054,72.87295730100158,0
0.4001206813932848,0.8940232231765383,0.0003842363431423,0.9728483606557377,0.2168370255584831,0.241489248811757,61.67456556082149,1
0.3905869253464377,0.8570699874394355,0.0002324822140578,0.8768656716417911,0.0274672236274915,0.0362888376067419,68.42553191489361,0
0.3731313420148364,0.8945307449085007,0.0002297030330903,0.8632246376811594,0.056330821886725,0.0413398642353842,69.50682056663169,0
1.155191613779582,0.7653112650424684,7.504902727017186e-05,0.8302951388888888,0.1590739931254308,0.2236928973480018,72.26346053319394,0
0.4597448901163502,0.9122047700809284,0.0001269161505224,0.846875,0.0358840829716224,0.0401677866823219,70.84870848708486,1
0.454003899930169,0.8797116755697378,0.0002449533091239,0.8103595890410958,0.0307445280324922,0.0364583333333333,74.04120443740095,0
0.4433488838674003,0.8471899720639894,0.0003198325184666,0.8659420289855072,0.0372810065711171,0.0397458608647787,69.2887029288703,1
0.5482137792828944,0.920911599769056,0.0002619251670773,0.8847947761194029,0.0418946111434433,0.0403435765229939,67.81233526620981,1
0.9321741682447588,0.9131793254631604,0.0002441934587605,0.725609756097561,0.1871837010895955,0.2253469547164993,82.6890756302521,0
0.6075916771426222,0.8150333111112963,0.0002786683641514,0.7539556962025317,0.021309420254993,0.0223785898137322,79.58027282266526,1
0.5940613490837957,0.8898862583711737,0.0002748021672164,0.7592147435897436,0.0354221954438521,0.0268869838880712,79.02902374670184,1
0.5971621535163258,0.9115378428426836,0.0002330681121236,0.7879166666666667,0.0405988163483726,0.0372244947145929,76.15018508725542,1
0.586713606630855,0.9106047326638892,0.0002789792342887,0.7719155844155844,0.040624979728059,0.0279967837673506,77.72870662460568,1
0.7981496319973346,0.8460042299831902,0.0001224656749232,0.6900436046511628,0.022461568983322,0.0258139554140322,86.95102685624013,1
0.9456862505635846,0.9105085969442503,0.0002460109144126,0.7053571428571429,0.0351990362277228,0.0256687658871375,85.0632911392405,1
0.5530073491707753,0.9282744462506408,0.0001673284472276,0.83203125,0.1075539749631874,0.0401156448881073,72.11267605633803,0
0.544207727778944,0.9085981828872818,0.000274642770339,0.7642045454545454,0.0716771795186893,0.0731122064832002,78.51301115241637,1
0.7054762797830191,0.8338737005553413,0.000179933140738,0.9652217741935484,0.1194726576969593,0.0926333774778336,62.16187989556136,0
0.5580073428798782,0.9230310788080668,0.0002538865781542,0.8142123287671232,0.046808003194646,0.0296920683619567,73.69085173501578,1
0.5880039919775274,0.9169814976485724,0.0001378970888542,1.170955882352941,0.085380703178188,0.0951971638232988,51.24018838304553,1
0.5302535308652978,0.8543564964853029,0.0002718430870756,0.7816611842105263,0.0288972118927863,0.0262698337769135,76.75960021041557,1
0.6483880998576174,0.4788136668521,0.0001258605659293,0.8586956521739131,0.1601071644603426,0.2335770731062498,69.87341772151899,0
0.5936715175622551,0.8297102694516739,0.0002045744697668,0.9125,0.0233853586673371,0.028437929255002,65.75342465753425,0
1.426184869735346,0.9616483442109802,0.0001658156811456,0.8663949275362319,0.2046700614854869,0.2250280823978355,69.25248301097751,1
0.4439059483623015,0.9246820551828016,0.0002854904407726,0.9621975806451613,0.0583655426319962,0.0776883288173083,62.35725510738607,1
0.8068444481898485,0.9363333617202284,0.0002139446426204,0.7259908536585366,0.0400370149834308,0.0470995137717032,82.64566929133859,1
0.5463288223812386,0.816599879742166,0.0002499588827537,0.8255208333333334,0.0293474678895433,0.0355725305478463,72.6813880126183,1
0.3382373232150095,0.7456306021111482,0.0003487846363888,0.8722426470588235,0.0981994516220708,0.1239461170241857,68.7881981032666,1
0.5611906781644664,0.8876205165536573,0.0001085768770554,0.7804276315789473,0.0286651727926535,0.0308305178894765,76.8809272918862,1
0.358245236898185,0.8479038909044037,0.0002673606587923,0.9067234848484848,0.0408872740997779,0.0468349187613752,66.17232375979113,1
0.4873198303522116,0.8629316984867862,0.000168178898082,0.8433035714285714,0.0261418142356381,0.0310227242564197,71.14875595553204,0
0.5888347630771582,0.8666202660453569,0.0001779162312437,0.8125,0.025862684018824,0.0265573932999624,73.84615384615384,0
0.6687180127211972,0.9264400980672404,0.0001113976647038,0.801097972972973,0.0379527581869785,0.0369393013780901,74.89720611491829,1
0.5079068099766095,0.8143461617129882,0.000197355538807,0.7916666666666666,0.0365623516141338,0.0334921960454364,75.78947368421053,1
0.419180907481495,0.8956262287313688,0.0002047925540056,0.8609601449275363,0.0330274540824357,0.0298394909572572,69.68963703314046,0
0.7809800780386724,0.810695007763095,3.249792246490658e-05,0.9800204918032788,0.1020149187004678,0.0784368774875695,61.22320961840042,0
0.386164511504231,0.8606727656184485,0.0002403308941584,0.8920454545454546,0.0392963900023606,0.0474721578320468,67.26114649681529,0
0.8285845194834149,0.7794607945010384,0.0001973042267418,0.73984375,0.0196247760735632,0.0243588675923111,81.09820485744456,1
0.4477142923529124,0.7265192123474391,0.0002100755890159,1.104166666666667,0.0598391942347711,0.077384461959945,54.33962264150943,0
0.7167422865832976,0.8148308168579327,0.0002021945652461,0.8002533783783784,0.0216856960751144,0.0234196564496402,74.97625329815303,1
0.6115790026913773,0.8812473251668523,0.000259711947464,0.8371478873239436,0.0635725516754087,0.0689728530966039,71.67192429022083,1
1.171483963724293,0.961233588728536,0.0002535553712052,0.8349471830985915,0.1956266381180253,0.2254397983466349,71.86083289404323,0
0.9301056953465088,0.8631816202298176,0.0006175931186889,0.8023648648648649,0.1845994759900269,0.2298725637129086,74.77894736842104,1
0.3445739313046483,0.8398749690554063,0.000241046058851,0.8641304347826086,0.1045048071903772,0.1440055273653227,69.43396226415095,1
0.586772168856507,0.8818321373894222,0.0001282110832928,0.7620192307692307,0.030120105976302,0.0297957059139247,78.73817034700316,1
0.7285657479580457,0.8967409286984611,0.0001074634935026,0.7330246913580247,0.0364333190365062,0.0268368188083088,81.85263157894737,1
0.3267992640595951,0.8184173654271446,9.738529090625638e-05,1.09837962962963,0.0694637318894613,0.0753333785551152,54.62592202318231,0
0.3052272504410025,0.853041838355259,0.0001978284199849,0.9733606557377048,0.0479591382724116,0.0477351634891233,61.64210526315789,0
0.5579493298047922,0.8975891876134657,0.0001682781373333,0.8184931506849316,0.0467414004361307,0.0448037774325136,73.30543933054393,0
0.3239337656144973,0.861152421836133,0.0002084015664456,0.93408203125,0.0472372679333968,0.0482197968631537,64.23418714061683,0
0.8059397374390548,0.5506049939101479,0.0001087779227926,0.8450892857142858,0.1202717016036302,0.1716999273040961,70.99841521394612,0
0.9754771348499852,0.9434159656293274,0.0002355281901957,0.7552083333333334,0.1657690673212453,0.2030547455928874,79.44827586206897,1
0.4227098289318852,0.9385263934521604,0.0003390382647682,0.90625,0.09791868147508,0.1445629188277547,66.20689655172414,1
0.6432925074989584,0.819027744253538,0.0001922616045302,0.7698863636363636,0.0251361405311721,0.0245749223642827,77.93357933579335,1
0.5652471071406843,0.8247690919616869,0.0002459655219248,0.8107876712328768,0.0354197595778041,0.0418291104276276,74.00211193241816,1
0.5719595664678215,0.928249647018744,0.0001996405344323,0.8754595588235294,0.0492629053391334,0.0450111408265494,68.53543307086613,0
0.8065536402649778,0.8657169681483519,0.0002538482694869,0.7421875,0.1286099815090182,0.1577460028782049,80.84210526315789,1
0.7755708884552547,0.9046469024443772,0.0002118118837655,0.6729403409090909,0.0662826998450381,0.095822400675752,89.16094986807387,1
0.4517181280870555,0.9055608719702912,0.0001723939414139,0.8380281690140845,0.0550862248139507,0.0460492748508129,71.59663865546219,0
0.5395740708487041,0.8902945571110547,0.0001693380704837,0.8279049295774648,0.0335316847794734,0.0264110704602661,72.47208931419458,0
0.5952869569974661,0.8784685623652863,0.0005144733063899,0.8318661971830986,0.1448163712864704,0.1583783613917724,72.12698412698413,1
0.6469430084272241,0.6703224160356362,0.00016759455176,0.8717830882352942,0.0170656660180396,0.0229067708168072,68.82445967316816,1
0.39664818964892,0.8593260898991111,0.0001663732407505,0.8495535714285715,0.0378307058971078,0.0456125280749851,70.62532842879664,0
0.36606822566785,0.916656625251383,0.0002682272944957,1.000529661016949,0.0352294261616862,0.0471436268410072,59.96823716251985,1
0.6152609253311834,0.8709366214764545,0.0002282936657423,0.9048076923076924,0.0247771129360098,0.0314931943292912,66.31243358129649,1
0.8297663861057907,0.6245220583091511,0.000357717310071,0.8285590277777778,0.1897287285556211,0.2293399899405149,72.41487689889995,0
0.5501524948368567,0.8262143402869615,0.0002060262581231,0.8922574626865671,0.0489761015843223,0.0510310363079828,67.24516466283325,0
0.3220118529655774,0.8838841879947573,0.0001976982745831,0.9738729508196722,0.0463789766301486,0.0447431908227386,61.6096791162546,0
1.58922209044848,0.937456406609889,3.7440809750353e-05,0.8861940298507462,0.1765045178319909,0.248872932924463,67.70526315789473,0
0.4344487766195601,0.9384212136376884,0.0001413892645413,1.021551724137931,0.0499888513135482,0.0601248244699629,58.73417721518987,1
0.5245873676965316,0.9257095032250672,0.0001875981587087,0.8772977941176471,0.0597550185154447,0.0531757330188268,68.39182818229439,0
0.4743331842368265,0.7644864467509958,0.0002086082026846,0.7879166666666667,0.0199565500247134,0.0238214607705582,76.15018508725542,1
0.8085222843801046,0.9543209853493326,0.0003099855887591,0.7372685185185185,0.1276510711015022,0.1245107613321033,81.38147566718996,1
0.4130648440782728,0.8868090199101913,0.0003475724700191,0.8745404411764706,0.1073864192234237,0.16945162322014,68.60746190225959,1
1.121566254971446,0.913052369287612,7.80753391150618e-05,0.8272569444444444,0.1150525692967119,0.159603105885978,72.52885624344177,0
0.5173198415031257,0.8950033375137448,7.798571579096234e-05,0.921153846153846,0.0435461225931702,0.0518222623493031,65.1356993736952,1
0.7588652185390142,0.9074184070723528,0.0002051351344767,0.6846264367816092,0.0309367140806529,0.0326711726642282,87.63903462749214,1
0.8472950841402175,0.886765993160284,0.0001558134767007,0.799831081081081,0.0217472857932157,0.0297139617107504,75.01583949313623,1
0.364836361709699,0.8886393775437821,0.0003108804791074,0.8676470588235294,0.0975218040786841,0.0963567928578506,69.15254237288136,0
0.7263586885323726,0.9343043127913327,0.0002289523772306,0.703125,0.1091622079696519,0.1202505072253411,85.33333333333333,0
0.442971591776258,0.8492912839171483,0.0002546709633382,0.8419894366197183,0.0629139731873437,0.0505273529175746,71.25980135912181,1
0.5095081458214332,0.7775328724682474,0.0002306434681901,1.045504385964912,0.0895572257904945,0.1323850790375778,57.38856843209229,0
0.6577819992567935,0.9251078487165512,0.0002551695973129,0.7278963414634146,0.037324221178949,0.0292574644901956,82.42931937172774,0
0.4320859735242942,0.9439887762113348,0.000187708173228,0.9890625,0.0863060279977592,0.075237969926388,60.66350710900474,0
0.7939671717868997,0.7388421212297626,0.0002603976765643,0.8996212121212122,0.0192446983266113,0.0212301943902111,66.69473684210526,1
0.5248312382193153,0.9002317124365872,0.0002401799031134,0.7916666666666666,0.0362044733270474,0.0363273871074435,75.78947368421053,0
0.6110716261087846,0.9164135624299984,0.0002732098396444,0.7985641891891891,0.0536716440310079,0.0395622991457603,75.13484928609202,1
0.5848948542491669,0.9249453804988956,0.0002943848981617,0.92578125,0.0591122888688342,0.0613737816288728,64.81012658227849,1
0.6346046725693887,0.9045928151984388,0.0001203524414701,1.146634615384615,0.0746934997033141,0.0888205670847405,52.32704402515723,1
0.8087516063410938,0.9168635416832868,0.0003034343229411,0.7075892857142857,0.033283138759442,0.0227529291110514,84.79495268138801,1
0.3989021847257337,0.8947728538795758,0.0002473288703625,0.9927083333333332,0.0505074080100027,0.047270576633401,60.44071353620147,1
0.5635210953264275,0.9200309897044378,0.000191520379762,0.8564311594202898,0.0499996718115673,0.0310193695417025,70.058170280275,0
0.525779024913792,0.8941464822697518,0.0001870003783936,0.9153846153846154,0.0374691687853821,0.0436732026855427,65.54621848739497,0
0.5322163682347226,0.8729587522770905,0.0003652410035123,0.9153846153846154,0.094900485093628,0.1017126294241526,65.54621848739497,1
0.2681024141039943,0.73233031186163,0.0006543762322637,0.8977272727272727,0.1122189057904434,0.1036445246986062,66.83544303797468,0
0.7442593266376136,0.8337197416439005,0.0002345618343183,0.7560096153846154,0.0235016175898436,0.0225234365673889,79.36406995230524,1
0.3605692290337244,0.8987154462833697,0.0003229003448871,0.853125,0.0898519988449259,0.0536010744403451,70.32967032967032,0
0.4678114679510586,0.8637929911769721,0.0002167596924578,0.8963068181818182,0.0308492729720869,0.0406527272242494,66.94136291600634,0
0.6392588645949823,0.893293398039513,0.0002095727173137,0.8389084507042254,0.0380562787345374,0.0446651729938598,71.5215110178384,0
0.646686116280794,0.8580175119748386,0.0002801973208665,0.7559335443037974,0.0253905166706981,0.0274080631033446,79.37205651491367,1
0.4763573019881657,0.9296071188943325,0.0002044001957249,0.8285590277777778,0.0596105196290358,0.0440382856000497,72.41487689889995,0
0.6218388076480346,0.8827884791306576,6.992922652128078e-05,0.927734375,0.0461780875685034,0.0562334631776523,64.67368421052632,0
0.5597500211285099,0.8149982614078481,0.0002468786337478,0.8287852112676056,0.0296041755647891,0.0323468230941728,72.3951141795008,1
0.3304703754512012,0.84765017820137,0.000308752334378,0.8777573529411765,0.0346228091945539,0.0351983319864289,68.35602094240838,0
0.7814214631993447,0.9238938105305848,0.0001218791927399,1.133413461538461,0.0274870111202626,0.0347324331391382,52.93743372216331,1
0.7540975962983184,0.886738062857614,0.0001814076289138,0.7686688311688312,0.0226692208502742,0.0265842596632312,78.05702217529038,1
0.3223311191499752,0.7223580997556177,0.0009397590060852,0.8948863636363636,0.1350851525905539,0.1614983924663982,67.04761904761905,1
0.5816239137907564,0.9198755135686458,0.000227391749826,0.7780032467532467,0.0489812032179628,0.0428658306905333,77.12050078247262,0
0.3404731978052477,0.8828304302827994,0.0003211319722434,0.863677536231884,0.0670809874661747,0.0690501469521799,69.47037231253277,0
0.6865862175984193,0.9404388749970458,0.0002086392842973,0.7221798780487805,0.0681525623857329,0.0683948458458062,83.08179419525067,1
1.16928317734985,0.9276022174034452,5.831992352665755e-05,0.8843283582089553,0.1535698234952079,0.237276858890941,67.84810126582278,0
0.5425747901150372,0.8840472498628995,0.0001908713505732,0.8248239436619719,0.0316779123511383,0.022719661874999,72.7427961579509,0
0.4955408499797578,0.9458107665570836,0.000246278604816,0.94890873015873,0.0730868734765551,0.0830598671577198,63.2305279665447,1
0.5329382679461249,0.8395190466564476,0.0002922263941327,0.7727272727272727,0.0423285921186117,0.0634184165618357,77.64705882352942,1
0.3543381924151017,0.884154819359447,0.0003259159465009,0.863677536231884,0.0613506213050003,0.0386466839000526,69.47037231253277,0
0.585308505363209,0.831973986620175,0.0001268301102078,0.7742598684210527,0.0206535663731486,0.0272431183971292,77.49336165693043,1
0.338882212490592,0.8511972354062088,0.0003498610128881,0.8759191176470589,0.0660678745403564,0.0966588525105523,68.49947534102833,0
0.6816595675107082,0.4524377581612137,0.000160400960836,0.742578125,0.1356087754912431,0.1897934628597724,80.7995791688585,1
0.6878346857953772,0.8775023688659244,0.000279078852991,0.7353395061728395,0.0326043033932046,0.0242061459137963,81.59496327387198,1
0.7961675925097427,0.9430669945958424,0.0001622179683357,0.8591485507246377,0.0522975274244509,0.0334690100294726,69.83658408012651,1
0.6897736027653524,0.853081683900479,0.0001852992579663,0.7322530864197531,0.021926346046887,0.023696485762661,81.93888303477345,1
0.5512764145040819,0.8860568435164801,0.0001847015905056,0.8393485915492958,0.0382897238924851,0.0373508940416998,71.4840062926062,0
0.3115127536972455,0.8476756146570694,0.0003191623537175,0.9702868852459016,0.0279658689835167,0.035630482034348,61.83738120380148,1
0.6362741799061359,0.9448425203323624,0.0001349236359024,1.167279411764706,0.0680229857175388,0.0676040864149497,51.40157480314961,1
0.7433964331401127,0.8658976360707364,0.0003013341649842,0.7698863636363636,0.0424102288234192,0.0263414759507351,77.93357933579335,1
0.6228576169856839,0.9183005285657764,0.0002684121857227,0.744921875,0.0464679592863122,0.0222365020926506,80.54535920293655,1
1.020130049451668,0.9561259007143312,5.439643438899016e-05,0.8314260563380281,0.1520544889035346,0.1749521618288023,72.16516675489677,0
0.4156406010424219,0.9165974104526567,0.0002450946285189,0.9859375,0.0530406806336733,0.049158706144797,60.85578446909667,1
0.7559319890805607,0.9518240483271436,0.0001881265520387,0.7754934210526315,0.0438176539630171,0.028641098093474,77.37009544008484,1
0.2749259264637016,0.8294576709151349,0.0007124283908245,0.9043560606060606,0.1248672102296747,0.1552854846106655,66.3455497382199,1
0.2901723570223004,0.8403165167955912,0.000102790530357,1.181875,0.0525483408396497,0.0568210806310618,50.76679005817028,0
0.8813290630664675,0.890389277548394,0.0001439252736432,0.8482142857142857,0.0231971090299403,0.0338585211803725,70.73684210526316,1
0.6709305847541817,0.924251692138094,0.0001817852774354,0.7564102564102564,0.0325679510142653,0.0251819676257931,79.3220338983051,1
0.5423127654891684,0.8924367824119194,0.0001600298432189,0.8138020833333334,0.0455356990886607,0.0294368355760668,73.728,0
0.6942400468170364,0.908104733486046,0.0001843690231979,0.7646103896103896,0.030462652605187,0.0297760970234073,78.47133757961784,1
0.4018592016158463,0.9456632076576492,0.0002844731456644,1.002118644067797,0.0960805668715835,0.0859742280449847,59.87315010570824,1
0.3621269330711582,0.8829194248196911,0.0003117029323678,0.8477678571428572,0.0522702852186281,0.038180717779331,70.7740916271722,0
0.9355170186775116,0.8179210776159417,0.0002379630313394,0.7172256097560976,0.0233560265945801,0.0306658363414161,83.65568544102018,0
0.3366910881961037,0.8401350082766211,0.0002099180037733,0.93115234375,0.0277204451703852,0.027277236279499,64.43628736234923,0
0.7760755021839975,0.5753386167897215,0.0001094985084195,0.817208904109589,0.0999881244121348,0.120243712298075,73.42063907805134,0
0.6397756732892336,0.8861511905979963,0.0002030713231027,0.7314814814814815,0.0272421349443051,0.0288110764290402,82.0253164556962,1
0.5533709301762874,0.8437478431040499,0.0001995846027647,0.7620192307692307,0.0325186280251651,0.0289318781178922,78.73817034700316,1
0.7745577530222971,0.8964971564014591,0.0001346248277586,1.146033653846154,0.0322677734583144,0.0433189550052295,52.35448348190877,1
0.7323494776765413,0.901634916231943,0.0001240562393634,1.123231132075472,0.0274285456358797,0.0318452915853167,53.41732283464567,0
0.4376995417360781,0.7792691853947596,0.0002739996534034,0.8331866197183099,0.0331481872953569,0.0308003362690363,72.01267828843106,0
1.452155828586799,0.9236053127287605,4.91689386201871e-05,0.8745404411764706,0.1684989832962329,0.2432927207044247,68.60746190225959,0
0.6965607699472741,0.9160661758071694,0.0001434223210866,0.8663949275362319,0.0447934754767321,0.0430417995366474,69.25248301097751,1
0.4543066326357079,0.8958916891086326,0.0001671643891508,0.8441964285714286,0.0440337916681435,0.0298604089345596,71.07350608143838,0
0.4234697721919784,0.8865200053517741,0.0003226425458817,0.8464285714285714,0.0511428696129274,0.0364745046951103,70.88607594936708,0
0.6429903018831828,0.951260891991852,0.0002099947344539,0.7210365853658537,0.063778928419122,0.0448709999420836,83.21353065539111,1
0.494399307278934,0.9478159191114692,0.0001896866510693,0.9611895161290324,0.0909676994859486,0.0690706012049965,62.42265338227583,0
0.605242811109382,0.9149995631025164,0.0002161379709682,0.9177884615384616,0.0586735465024196,0.0551044374205698,65.37454164484024,1
0.8045048328656011,0.6924911417044529,0.0003023985859404,0.8220486111111112,0.2118606912526979,0.2424305203935962,72.9883843717001,1
0.7807545124215923,0.7852008353736448,0.0002243975335331,0.7925,0.0220321734440038,0.0283725963382446,75.70977917981072,1
0.2736285836761901,0.90501748763727,0.0003523933874999,0.9657258064516128,0.1130516377668585,0.0999487573627639,62.1294363256785,0
0.6093808447069983,0.9296146282165616,0.0002459513204729,0.9769467213114754,0.040370672755831,0.0344695668911964,61.41583639223912,1
0.6359913122532224,0.8701580464347205,0.0001794581383615,0.799831081081081,0.0229288377711118,0.0292602867990326,75.01583949313623,1
0.7685238989908991,0.8104378726302702,0.0002337148754679,0.900094696969697,0.0244613472596391,0.0268543077764787,66.65965281430826,1
0.7718959075943138,0.7788960596846559,0.0002123094158078,0.7920833333333334,0.0219453234704394,0.0276661137739175,75.74960547080484,1
0.460912492077208,0.859369770820456,0.0002410605754794,0.815068493150685,0.0296027424993501,0.0232923747656228,73.61344537815125,0
0.6657291753499053,0.8033867285563777,0.0002009409530694,0.801097972972973,0.0274623150133262,0.0318856583040001,74.89720611491829,1
0.4372086859543851,0.862249627413004,0.0004356866950129,0.8482142857142857,0.1200220536707606,0.1210891844043478,70.73684210526316,0
0.7791884824341957,0.8778774063889699,0.0001214862862922,1.069196428571429,0.0482370151450319,0.0544536395811736,56.11691022964509,1
0.6579179767710442,0.933431825401431,0.0002287521228229,0.73984375,0.0418607135144337,0.026544460553493,81.09820485744456,1
0.6855006512596343,0.9280138174090916,0.0001863898260822,0.8146404109589042,0.0328481611185802,0.0278048912813315,73.6521282186022,1
0.7217535432655549,0.8566213582151924,0.0002161888683478,0.7845394736842105,0.0298101463164339,0.0344223159205381,76.47798742138365,0
0.5480298322274284,0.9566524243047012,0.0002534432248267,0.9071969696969696,0.0870336763796095,0.0875343339232361,66.13778705636743,1
0.8517565193078401,0.849931083876336,0.0001533201954327,0.9754098360655736,0.0512755940247997,0.0640434422872475,61.51260504201681,0
0.5433821128544605,0.9275664769531003,9.13640239400306e-05,0.9345238095238096,0.0636584810601411,0.0583285328285864,64.20382165605095,1
0.577878242278684,0.8879617231834954,7.023037274545569e-05,0.9326171875,0.0904731267156985,0.1080381739192658,64.33507853403141,0
0.8587577263273914,0.84774959188303,0.0002069265865072,0.7105654761904762,0.0260203994792346,0.0244960502102607,84.43979057591623,0
0.6344339846602053,0.9363102080441444,0.000154780794996,0.9637096774193548,0.0496311839721418,0.0532318717699382,62.25941422594142,1
0.3479764565680064,0.8427909279772339,0.0005114294097094,0.853125,0.1602479593696683,0.2145692622373984,70.32967032967032,1
1.053727484747032,0.9540021532163891,5.333438218783067e-05,0.8389084507042254,0.1597450556853311,0.1951919270688651,71.5215110178384,0
0.7063182654678346,0.8993605503461009,0.0001787354685435,0.7548076923076923,0.028779302878314,0.0251819676257931,79.49044585987261,1
0.5564728311759719,0.9123138921105162,0.0002179488263022,0.780016447368421,0.0422440500233915,0.0401818781708039,76.921454928835,0
0.5459981168996891,0.9386318587243204,0.0002584331644877,0.8936567164179104,0.0663593203339835,0.0523195401384896,67.13987473903967,1
0.4052405374527721,0.860000860223933,0.0003540712637088,0.7584134615384616,0.0449450666648179,0.0310464147709501,79.11251980982567,0
0.4137881678364994,0.9538718410087336,0.0002820154150542,0.9789959016393442,0.1117061746297695,0.1223016037984239,61.28728414442701,1
0.6628483817425965,0.9118365679653558,0.0003104731809196,0.7853618421052632,0.1035629289586838,0.0919267144704592,76.3979057591623,0
0.7236707913538528,0.8816696107139157,0.000203713969187,0.7531645569620253,0.0225648112293538,0.0264787045542601,79.66386554621849,1
0.6602101645697136,0.8787847898411565,0.0002800567165244,0.7341820987654321,0.030714335243048,0.0220970869120796,81.7235943247504,1
0.3390747683624332,0.9015217389377858,0.0003065166092586,0.9880208333333332,0.0988362734069441,0.0732312624267134,60.72746441750132,0
0.4566646933602835,0.8908581575486161,0.0002642225561661,0.8763786764705882,0.0628285993071254,0.0949088820686577,68.46355532249606,1
0.512687727018398,0.866418104120439,0.0001890865644654,0.8908582089552238,0.0433191519440347,0.0410705462920481,67.35078534031415,0
0.5339195503480755,0.8294389380705222,0.0002768894387266,0.7755681818181818,0.0329209412186254,0.0336267241780606,77.36263736263737,1
1.123833688523306,0.9354033797034068,4.678152546374659e-05,0.8371478873239436,0.1665954901991393,0.2234819823354255,71.67192429022083,0
0.6603115213956032,0.9403887012963008,0.0001844128276685,0.754746835443038,0.0494952288595476,0.043191258092825,79.49685534591195,1
0.6255038331957595,0.8140017018551267,5.414586305791845e-05,0.886660447761194,0.1977776939751494,0.3061862178478972,67.66964755391899,0
0.6589783575243094,0.6173028231969748,0.0001441927481587,0.846875,0.0813443819949654,0.1146656489569768,70.84870848708486,0
0.4265926130033054,0.876475016060649,0.0002009507081396,0.9153846153846154,0.0341109072597437,0.0329146475514701,65.54621848739497,0
0.6976192310988394,0.8436555148689715,0.0001825074090481,0.7364969135802469,0.021926346046887,0.0275106513463422,81.46673651126244,1
0.3957289842227737,0.8240513596183748,7.553972645313263e-05,1.026400862068966,0.1893587576376768,0.1519135076804873,58.45669291338583,0
0.7681538517541083,0.9389308946374636,0.0002451030688793,0.741796875,0.1123201415997343,0.0940133432153736,80.88467614533965,0
0.5134017996597358,0.901070255228097,0.0003753060878731,0.935546875,0.0919214580136726,0.1076068820820888,64.13361169102296,1
0.8720210226219556,0.956646559826164,0.0001981593728399,0.7858333333333334,0.1279539847844616,0.0851177890147339,76.35206786850476,1
0.3801570907985201,0.8786636982108624,0.0003053081657605,0.863677536231884,0.1019192819777366,0.0295978716693099,69.47037231253277,0
0.4930688179383658,0.9286749841405938,0.0001767595602497,0.8428697183098591,0.0657123058977504,0.0437181006155181,71.18537859007833,0
0.2851343814807581,0.8668084677437442,0.0001545783444213,1.117924528301887,0.0480461056308098,0.0429004045614777,53.67088607594937,0
0.3525944709033279,0.9172129049838296,0.0003472550717827,0.9144230769230768,0.1061901589229012,0.0835974006212214,65.61514195583597,0
0.3985465189044131,0.8285607121968984,0.0003289307898843,0.8301056338028169,0.0271178200717418,0.0323468230941728,72.27995758218452,0
0.7636635347943261,0.870185637294466,0.0002241095878547,0.7480221518987342,0.0291382070580741,0.0274080631033446,80.21152829190903,0
0.6162406031486422,0.8549620603086643,0.0001213625726599,1.119693396226415,0.0555498382703485,0.0549871597773936,53.58609794628752,0
0.499907030710405,0.8614704529161578,0.0002441968971053,0.7857730263157895,0.0319429533049374,0.0417707034495071,76.35792778649922,0
0.6058764704489041,0.8844055720952444,0.0002748165767478,0.7686688311688312,0.0346230499370798,0.0279967837673506,78.05702217529038,1
0.3927491265808413,0.9026984018306932,0.0002831520513665,0.9657258064516128,0.0611522213229963,0.0683717238553396,62.1294363256785,1
0.6847248139426937,0.9014933516482754,0.0001535330118128,0.846875,0.0264901851770478,0.0332255958169496,70.84870848708486,1
0.6357319641314372,0.8532455162447554,0.0002067876574148,0.9010416666666666,0.1215897659367578,0.101298658773109,66.58959537572255,0
0.6047518732365226,0.7901841261626397,0.0002821226023544,0.75,0.0179276411291529,0.0237360789160234,80.0,1
0.4993861744843529,0.872362451594417,0.0002050231694756,0.8717830882352942,0.0458339374730813,0.0488916331394726,68.82445967316816,0
0.4612627791961256,0.888101425954672,0.0001636995205194,0.8477678571428572,0.0288939662951507,0.0234940441111285,70.7740916271722,0
0.4605571136835112,0.926663661644605,0.0003100099768946,0.92626953125,0.0516355978961488,0.0611206927914072,64.77596204533474,1
0.4459446045352046,0.8951501949317769,0.0001758976134298,0.9484126984126984,0.0548827241504909,0.0571004261748967,63.26359832635983,0
0.5772158320977298,0.9068200138184872,0.0001425606785116,1.098958333333333,0.1516391439465808,0.1315360763699163,54.59715639810427,1
0.766523349141857,0.9004319885053411,0.0001197990631086,1.065848214285714,0.0675107907805206,0.0696225619778792,56.29319371727749,1
0.4423380278480246,0.9481202565601212,0.0002547018645363,0.954133064516129,0.0598526368726453,0.0647643110332114,62.88431061806656,1
0.5456318274545013,0.8994299249738098,0.0003669733640067,0.93115234375,0.091472947003851,0.1161286488995635,64.43628736234923,0
0.4509925530525758,0.9362100938228598,0.0002141654754418,0.9115384615384616,0.0485886230504716,0.0418898644326703,65.82278481012658,0
0.4844197023173417,0.8994964728808631,0.0002553032964813,0.8495535714285715,0.0602943063655436,0.0466859108871436,70.62532842879664,1
0.8015061873054306,0.8740336365773164,0.0002070948295381,0.6657303370786517,0.0644711112981714,0.0932753134055795,90.126582278481,1
0.6836749479646204,0.8362495419901989,0.0001467637605148,0.8371478873239436,0.0363056173015867,0.0462005044035544,71.67192429022083,1
0.3639385895412199,0.8414392557197836,0.0004028739076867,0.8450892857142858,0.1149334670559006,0.1753296584449841,70.99841521394612,1
0.7639779269602163,0.8136258225184436,6.15898197154768e-05,0.9028846153846154,0.01908599350123,0.026493476496583,66.45367412140575,1
0.748100255379414,0.9710440828311128,0.0001962165450671,0.7672275641025641,0.08531020118437,0.0930711351671327,78.20365535248042,1
0.4637233563309573,0.8474427902624514,0.0003314409723647,0.8056506849315068,0.028913775326658,0.0310322273120129,74.4739638682253,0
0.7581542135392193,0.8355826858507687,0.0002758105056374,0.7229420731707317,0.021139753427376,0.0252781593377795,82.99420137058515,1
0.605825257173383,0.7921656216835546,0.0002478083041007,0.8027871621621622,0.0191715531466489,0.0253401516899807,74.7396107311941,1
0.7334456094722158,0.9021415228275068,0.000180789496033,0.7767269736842105,0.0257014801447482,0.0308305178894765,77.24722075172049,1
0.6239369978730532,0.8315062234428151,0.0001230719896263,0.8899253731343284,0.0386930133432017,0.0438580915792023,67.42138364779873,1
0.9289635443353188,0.912264593842386,0.0001426701003363,0.7357253086419753,0.1439234546906442,0.1307281291459493,81.55217619297326,1
0.6128863513563011,0.9118067310783332,0.0001633999282926,0.8477678571428572,0.0813051716136338,0.1181310145313368,70.7740916271722,1
0.3248802363574961,0.6995008166389236,0.0003272764378243,0.7966666666666666,0.1042549625783935,0.1287445879208867,75.31380753138076,0
0.5666844525607699,0.9348626080102542,0.0002804150189563,1.022090517241379,0.0651405095747914,0.0843211735391386,58.70321560358461,1
0.8360232702900174,0.8628310403067045,0.000180602909879,0.78125,0.0295595407164661,0.03125,76.8,0
0.5077503141852422,0.9397407676399108,0.000256379248896,0.9723360655737704,0.0627807119873217,0.0852004376944938,61.70706006322445,1
0.3814403283214386,0.912843101682479,0.0003175615302405,0.8713235294117647,0.0963978720744624,0.0651267062972965,68.86075949367088,0
0.6111357562897972,0.886131209169158,0.000162749483118,0.8027871621621622,0.0340493154481439,0.0407285955214599,74.7396107311941,0
1.33743772121135,0.7631354390149073,6.410134016354194e-05,0.846875,0.1600563168187105,0.2192992586742428,70.84870848708486,0
0.4275733404290587,0.927987994827419,0.0002017356264557,0.9399801587301588,0.0526167881197465,0.0432939944989766,63.8311345646438,0
0.2140342629120815,0.8786510421166356,0.0003359575331728,1.030172413793103,0.1551649303751061,0.1820291028880976,58.24267782426779,0
0.7174847106715386,0.9075694246096808,0.0001583766224026,0.8991477272727273,0.0355870405759726,0.0431622609374297,66.7298578199052,1
0.5372744487141272,0.8552384147945283,0.0001734622273961,0.8246527777777778,0.026329428625179,0.0259608487729905,72.7578947368421,0
0.9400504453479644,0.9628912350459964,0.0002480942502954,0.7496044303797469,0.1127824415675656,0.1037049060172723,80.04221635883904,1
0.6626591887621284,0.8444321368083036,6.150479469280868e-05,0.9019886363636364,0.0271377459865664,0.0300240288384538,66.51968503937007,1
0.5276576511047502,0.8394036738684902,0.000197387988701,0.78875,0.0305505046330389,0.0276661137739175,76.06973058637084,1
0.5684723188656406,0.9226960264130656,0.0002825388392788,0.8838619402985075,0.0542089187528643,0.033972331656538,67.8839050131926,1
0.4277335124670505,0.8314475323182517,0.0001658432120076,0.8623188405797102,0.0283124992900141,0.0303169531295416,69.5798319327731,0
0.4211926368665755,0.8889432213833349,0.0001429755933623,1.11438679245283,0.0656470078288527,0.0914172926433,53.84126984126984,0
0.3946556132946465,0.9625489171804712,0.0002831645342432,0.9973958333333334,0.1124264323501027,0.1167851496828286,60.15665796344647,1
0.4330514648637583,0.9191314227675624,0.0003056371260518,0.9444444444444444,0.0499393370978302,0.0591331023228325,63.52941176470588,1
0.5340144349941061,0.7019930487189551,0.0001464507972027,0.8899253731343284,0.1180875830333224,0.1737799053182624,67.42138364779873,1
0.5362931262906256,0.9167093102715052,0.0001795120360604,0.9581653225806452,0.0404515327161961,0.0419644414267876,62.61967385586534,0
0.481620727719874,0.9015391671377424,0.000266364975243,0.8393485915492958,0.0558267957595349,0.0773623489542185,71.4840062926062,1
0.6387417812137762,0.935054081072346,0.0001803105115032,0.8019425675675675,0.0356959889510205,0.0306011404120916,74.81832543443917,1
0.3201509805681445,0.8140193528202685,0.0003257334805643,0.8977272727272727,0.0300653558075521,0.0310086836473021,66.83544303797468,1
0.8351210083273727,0.894498259312053,0.0001425443751635,0.8591485507246377,0.0269312839625335,0.0382732772309871,69.83658408012651,1
0.3757952590249724,0.838277653932927,0.0003419423676986,0.7726151315789473,0.0323008687146263,0.0310409675536486,77.65832889835019,0
0.2712514577264691,0.8170686043213884,0.0014330033142774,0.7535601265822784,0.1237064538853789,0.1674660317642709,79.62204724409449,1
0.389012957754126,0.8469397756744129,0.0002311206760895,0.8415492957746479,0.0263937752650791,0.0236227795630767,71.29707112970712,0
0.5028624150967065,0.8457093632945222,0.0002473959829769,0.8639705882352942,0.0272033981377734,0.0250349569035814,69.44680851063829,1
0.5679335032046349,0.8602255294508673,0.0002366671605381,0.8255208333333334,0.0213160228434178,0.0277533147366803,72.6813880126183,0
0.4069825590821979,0.9308966503098334,0.0002889700293696,1.022629310344828,0.0562000207345056,0.0796184018445528,58.6722866174921,1
0.4676677754600896,0.9316246042592616,0.0001271518024084,0.8875932835820896,0.059894307341388,0.04895934073754,67.59852863899107,1
0.4911235259628519,0.909409359847203,0.0002709488785634,0.8074324324324325,0.058582240317094,0.051725368037648,74.30962343096235,0
0.5405593555288772,0.8772101818001188,0.0002173523290046,0.7650162337662337,0.0278646816457335,0.0316585140705923,78.42970822281167,0
0.9582839118352228,0.8956213403836435,0.0002175148712125,0.7310956790123457,0.0331879832833434,0.0324006896145745,82.06860158311345,1
0.7359314352432639,0.8379935716152321,8.351709031425107e-05,0.9010416666666666,0.088986183632771,0.1403442710732324,66.58959537572255,0
1.112354017009996,0.9254943993613682,0.0001222930637569,0.6882267441860465,0.0724269040889592,0.0450948754751318,87.18057022175292,1
0.7967114384282992,0.909469407504937,0.0002402504021149,0.7033088235294118,0.038235294117647,0.0423127000241456,85.31102979613172,1
0.3084032227387029,0.7675449428963534,0.0008817772301334,0.9144230769230768,0.1332919144864219,0.1568834814689313,65.61514195583597,1
0.6829939557086864,0.8995378292610694,0.0001230329733468,1.125,0.0504256645123238,0.0571640478393947,53.33333333333334,1
0.7452285470741223,0.713313771638075,0.0001778608279335,1.005296610169492,0.0537129548054543,0.0483775003808945,59.68387776606954,0
0.5420788380016978,0.8036449457580859,0.0002510408203221,0.8065068493150684,0.0217354491006611,0.0265573932999624,74.39490445859873,1
0.5572541602054248,0.8681961597869985,0.000271643093235,0.7767269736842105,0.0315381237977708,0.0252590742770461,77.24722075172049,1
0.4604685154425754,0.93734054268657,0.0002710434657791,0.8948863636363636,0.0616985459441739,0.0626200769598819,67.04761904761905,1
0.6663192808814937,0.8602397809332415,0.0001868846691134,0.91875,0.0375,0.0484752876796517,65.3061224489796,0
0.5110672099530376,0.8064774693807195,0.0007882991100943,0.7576121794871795,0.0781948241556755,0.0750405734408903,79.19619249074563,1
0.6729013642413098,0.9446476085942734,0.0001785212518538,0.793918918918919,0.0420265381912997,0.0358363861925622,75.57446808510637,1
0.6400859049197002,0.9138779452513204,0.0001816283528108,0.8708639705882353,0.1129159502766615,0.1737830823224532,68.89709762532982,1
0.3612937309039468,0.2344712529202064,0.0003171578299678,0.7057291666666666,0.088415745543539,0.1204948694103482,85.01845018450184,1
0.685584495291262,0.8818760508671999,0.0001537171970165,0.8495535714285715,0.023795103520065,0.0327968604895501,70.62532842879664,1
0.5137797202555505,0.8723370406294103,0.0001941593295772,0.8065878378378378,0.0306856454807178,0.0303817745700839,74.38743455497382,0
0.71057469312856,0.7830425793131206,0.0001613489645934,0.7116815476190477,0.01624598628043,0.0232642947376135,84.30737062205958,1
0.6393364398431883,0.8872142659763772,0.000211371017475,0.8065878378378378,0.0306856454807178,0.0306011404120916,74.38743455497382,0
0.8347431455332374,0.8628349427050038,0.0001920545311708,0.6772017045454546,0.0252480551105872,0.0307064802775323,88.5998951232302,1
0.4238120733352595,0.3365220394626936,0.0002586271824722,0.8455357142857143,0.1498590962353964,0.2164736633410398,70.96092925026399,0
0.6635810496944987,0.860642913609254,0.0001889065209149,0.9134615384615384,0.0249815020322434,0.0342772046382504,65.6842105263158,0
0.592283296396226,0.7680425496222463,0.0002734395323817,0.8875932835820896,0.0300902819333755,0.0354639835437007,67.59852863899107,1
0.6425422117307686,0.8410840707428829,0.0002483636472474,0.9173076923076924,0.0404418093169482,0.0342772046382504,65.40880503144655,1
0.5894300918399006,0.923906925933174,0.0001385347896181,0.9627016129032258,0.0516971024393471,0.0548610390583096,62.32460732984293,1
0.5179515673548315,0.9481752201658658,0.0001828716945898,0.8167808219178082,0.0642551227264,0.0498206418482004,73.45911949685535,1
1.059234160272773,0.8549670010038837,0.0001206152157126,0.7075892857142857,0.0378587923607397,0.0270088952326219,84.79495268138801,1
0.5738240737510202,0.903333315696508,0.0001539711738054,0.8591485507246377,0.084058751870436,0.1218585018999254,69.83658408012651,1
0.553789467281955,0.7954726330781674,0.0002025372532897,0.7916666666666666,0.025685058345704,0.0264467370132621,75.78947368421053,1
0.486720288444939,0.9490962315037728,0.0002585162871777,0.9561491935483872,0.0633658962997112,0.0833546762286335,62.75171323141803,1
0.3774030755824023,0.9342952227241034,0.0002450208414783,1.013241525423729,0.0464594539398059,0.0269073081663443,59.21589127025614,1
0.696512130955202,0.7994505833467592,0.0001834399161232,0.7314814814814815,0.0168521062251863,0.0220970869120796,82.0253164556962,1
0.5008185591098727,0.6303046966148681,0.0004181441201423,0.7213855421686747,0.0792954223637063,0.0873719664325616,83.17327766179541,1
0.5322307424630567,0.7946238606267214,0.0002707279486059,1.038925438596491,0.1541282144904061,0.1490530002213978,57.75197889182058,1
0.4164428501836675,0.948247308149791,0.000261635026058,1.029633620689655,0.0734993580712825,0.0916242924388083,58.27315541601256,1
0.626931348969306,0.8563735008371999,0.0002032897588402,0.9125,0.0368533998014169,0.0368514887970961,65.75342465753425,0
0.8453791645113762,0.8278701577311386,0.0001595721928381,0.7124255952380952,0.0178997198269634,0.0224928870952467,84.21932114882506,1
0.5684235892703258,0.9244542192994952,0.0001676367214031,0.8198784722222222,0.0529851753548869,0.0337877983435057,73.18157755426151,0
0.5073980667096554,0.883881474544329,0.0002175054367918,0.8648897058823529,0.0248161764705882,0.0247421403169306,69.37300743889479,1
0.4531649937654876,0.896409248685243,0.0001457767219565,1.108217592592593,0.0424036229206536,0.0700088437809622,54.14099216710183,0
0.7649262216357308,0.8705001262551779,0.0002055670371432,0.7759046052631579,0.0451685434159423,0.0279508497187473,77.32909379968204,1
1.216903063357544,0.9402331778508654,6.001308586157117e-05,0.8632246376811594,0.1733081267116145,0.2535082429191232,69.50682056663169,0
0.412560886172026,0.9453368754907578,0.0003187191728396,0.9697745901639344,0.0737704918032787,0.105666288774298,61.87004754358162,1
0.6421548864499725,0.5898496487108741,9.135890815236592e-05,0.8805970149253731,0.0586315327522688,0.0909460743901005,68.13559322033899,0
0.8731452886751883,0.9104893763283928,0.0003172549360311,0.7372685185185185,0.0441335091780963,0.0507511930278491,81.38147566718996,1
1.15120877835779,0.9317707745465872,5.331782871541974e-05,0.8586956521739131,0.1514767934919526,0.211574813374399,69.87341772151899,0
0.5813594906406825,0.9149867575303712,0.0002327469004764,0.7723214285714286,0.0452875527096211,0.0418035033787461,77.6878612716763,0
0.4231101622072481,0.8438217233132174,0.000242760926217,0.8786764705882353,0.0332664725567166,0.0351983319864289,68.28451882845188,1
0.7546605234698345,0.81853101802993,0.0001551299113483,0.9942708333333332,0.0591530023834143,0.0644556328158751,60.34573074908329,0
0.469687316486012,0.7863158319560245,0.0004955434937251,0.8455357142857143,0.0978116747862431,0.1062739742773161,70.96092925026399,1
0.7511382814602519,0.9251238611834176,0.0001878437503845,0.6893168604651163,0.0709022667538986,0.0986466324221729,87.04269899841856,1
1.169796226258121,0.9103048240137542,5.863091668880506e-05,0.8922574626865671,0.1807139188515826,0.2641587203660983,67.24516466283325,0
0.8224882523041871,0.8760416781536945,0.0002127172530715,0.657967032967033,0.0294329702434287,0.03210632293213,91.18997912317327,1
0.6876870050788719,0.8104514509174333,0.0001828584546194,0.7380401234567902,0.0187422188294616,0.0277316239832794,81.29639309984317,1
0.403291778395122,0.9223644446699216,0.0004313391577572,0.8843283582089553,0.1133846495256337,0.1345213702466277,67.84810126582278,1
0.4066627665611948,0.9076127981790956,0.0002319318911951,0.8349471830985915,0.0570182037199116,0.0404011690955313,71.86083289404323,0
0.4530543104968204,0.8448330211967061,0.000325307878218,0.8428571428571429,0.0329753309153917,0.0298604089345596,71.1864406779661,0
0.5778575404026783,0.9104306764247612,0.0002058304131211,0.91875,0.0398313753407845,0.0398360899499436,65.3061224489796,1
0.6062681305686288,0.8542337896070402,0.0001983061484637,0.7791940789473685,0.0377103224447697,0.0332681654638985,77.00263852242743,1
0.5747214404683325,0.7776965401155951,0.0002461872384341,0.7904166666666667,0.0167497927018681,0.0240968625298768,75.90933052187665,1
0.7183004128367227,0.9158153294081174,0.0001389828102954,1.060267857142857,0.0306056008946475,0.0388488475317538,56.58947368421052,1
0.6552521862189379,0.8816638712646973,0.0001244284949252,1.006885593220339,0.0505097809380599,0.0414415614720461,59.58968963703315,0
0.5476665809612999,0.9281391053557476,0.0002565263592542,0.9429563492063492,0.0490294198140935,0.0612269541897589,63.62966859547607,1
1.340212814642163,0.8788877706562772,0.0009109053879324,0.79625,0.1447303527253354,0.213251354515517,75.35321821036106,1
0.3915292934334832,0.8507266898862108,0.0001501351514858,1.066964285714286,0.1237984341416254,0.1021779864211999,56.23430962343096,0
0.979583134307119,0.8792559671879532,0.0001958425414523,0.7101934523809523,0.0212118828722446,0.0270088952326219,84.48402304871661,1
0.737468590214068,0.8806833953152089,0.0003778893674772,0.6930147058823529,0.0263323596756911,0.03125,86.57824933687003,0
0.4866061288597699,0.9019129208778504,0.0001838409843648,0.92138671875,0.0370547243552815,0.03125,65.11923688394276,0
0.4197879524598786,0.9475689516334797,0.0002445904743619,0.8972537878787878,0.0638502701108439,0.0515679629973136,66.87071240105541,0
0.5976289924345376,0.8190657863609887,0.0001438149802543,1.026939655172414,0.0500700868771075,0.0556867511566796,58.42602308499476,0
0.3687626287420123,0.9117844134757032,0.0002574024784398,0.90625,0.0873625293730758,0.1032758130187679,66.20689655172414,1
0.5273527444014359,0.8193312435599196,0.0002471350524645,0.8336267605633803,0.0271392429744154,0.033407655239053,71.97465681098205,1
0.6597306760056132,0.9244352897882376,0.0001702011422895,0.7979166666666667,0.0508606483988904,0.0375773414152443,75.19582245430809,0
0.5237069393063294,0.8630064727424045,0.0002974766380625,0.8103595890410958,0.0270404309886194,0.028998772723073,74.04120443740095,1
0.3710657709907885,0.842706695083942,0.0001046558429945,1.100115740740741,0.0228056255731921,0.0250294637698008,54.53971593897948,0
0.4171898720676477,0.8250714751603849,0.0003312487683211,0.8142123287671232,0.0292101405979999,0.0360843918243516,73.69085173501578,0
0.5371913661687373,0.8665750597412005,0.0001218756005179,1.013241525423729,0.062288676061301,0.0553568945648332,59.21589127025614,0
0.5139777325411519,0.9038505166330224,0.0002895848114212,0.8568840579710145,0.0915975422478775,0.1283445035086519,70.02114164904863,0
0.6248627293940547,0.7756702267778237,0.0001907542699389,0.7345679012345679,0.021473642052586,0.0261456258291898,81.68067226890756,1
0.6518102909916261,0.5768394286979707,0.0002656991677352,0.7480221518987342,0.1350162038439558,0.1706138169059903,80.21152829190903,0
0.5094892842715351,0.9423460857942788,0.0002615004300138,0.9459325396825397,0.0528826607334429,0.0731802073100061,63.42947037231254,1
0.5699450690326316,0.8874980824906669,0.0001888979326389,0.8541666666666666,0.0284858427418775,0.0278478996462189,70.2439024390244,0
0.4750803845694284,0.9024029354914356,0.0003980730288393,0.8202054794520548,0.0759818757956636,0.0364583333333333,73.15240083507307,0
0.634578477415819,0.7327108484277313,9.565016030561948e-05,0.8389084507042254,0.1596589302641498,0.2248201165853015,71.5215110178384,0
0.3997175035672143,0.8771198913978324,0.0004215990966771,0.8736213235294118,0.1319782213306469,0.2087604452655308,68.67964229352972,0
0.6327732823610384,0.895469314505118,0.000179320843928,0.7698863636363636,0.0261257742523231,0.0299910896855435,77.93357933579335,1
0.7067896938900275,0.7793264221355247,8.059072694269223e-05,0.9177884615384616,0.1293206675638956,0.2096313728906053,65.37454164484024,0
0.5178716331303918,0.7832128671226476,0.0002989648612729,0.7644230769230769,0.0238372993279543,0.0261698684174569,78.49056603773586,1
0.7573765356482665,0.8972230665506007,0.0001342471923296,1.078409090909091,0.0272253376152521,0.0425258635899857,55.63751317175975,1
0.4365043378898986,0.911679293240234,0.0002523028542835,0.9707991803278688,0.0334132661047547,0.0282405035660957,61.8047493403694,1
0.4114411554799419,0.8856958946692322,0.0003072323782037,0.8500905797101449,0.07129664721438,0.0454754296943124,70.58071390516783,0
0.673489025242725,0.8957419451459856,0.0001572623282866,0.8996212121212122,0.0416128267854542,0.0502398095292812,66.69473684210526,1
0.7140994317065794,0.8564721465871367,0.0001024311316188,0.8129280821917808,0.145337529208123,0.1746928107421711,73.80726698262244,1
1.231386570114865,0.9318643793350452,4.1460242626187e-05,0.8532608695652174,0.1699438069680095,0.2302953765882876,70.31847133757962,0
0.3843003139749784,0.86595845941034,0.000353976122784,0.8682065217391305,0.0550006086350009,0.0907136989865562,69.10798122065728,0
0.7404694518686475,0.8151819691735015,0.0002029000726132,0.7702922077922078,0.0274777774022901,0.0299910896855435,77.89251844046365,1
0.5797713574682823,0.8240757825460077,0.0003018355480149,0.8559782608695652,0.0405944671019865,0.0438680131021386,70.0952380952381,1
0.4611058616623508,0.5987249708775518,0.0003494879992868,0.8708639705882353,0.078382738779952,0.1149149994106611,68.89709762532982,1
0.6634301117314323,0.9246807912784196,8.104666802799767e-05,0.8568840579710145,0.1089576401843733,0.1470157335767762,70.02114164904863,0
0.4097325089965936,0.8813632028089021,0.0001935212430373,0.8704044117647058,0.0827256942868551,0.1042055275770529,68.93347412882788,1
0.4323862685419739,0.835155899634833,9.560423778026287e-05,1.006885593220339,0.1819507018004191,0.1659185346165712,59.58968963703315,0
0.4121054478904904,0.9064943471631604,0.0004628183937569,0.8880597014925373,0.1297094707755225,0.1692945059204476,67.56302521008404,0
0.6188319181112343,0.8617283102691693,0.000456347215052,0.8023648648648649,0.1290627871319965,0.1915585298980766,74.77894736842104,1
0.4070249422592104,0.92981486324017,0.0001843751536791,0.8972537878787878,0.0645417338031652,0.0383712883446825,66.87071240105541,0
0.7135294880584943,0.9407809130538746,0.0001769469123881,0.746875,0.0472898310950673,0.0267762943050165,80.33472803347281,1
0.6177650277635451,0.505191944666305,0.0001573089081815,0.93310546875,0.1943623127123807,0.3061102693863921,64.30141287284144,0
0.596839473652017,0.9407860190942706,0.0002359515343494,1.006885593220339,0.0536868336373455,0.0402042200564173,59.58968963703315,1
0.4927469794572839,0.8740653548387957,0.0001729771773488,0.8367077464788732,0.0403539791987749,0.034838594669869,71.70962651236191,0
0.4795126869984185,0.7791286532243367,0.0002447941637787,0.8605072463768116,0.017305229324767,0.0224196891868574,69.72631578947367,1
0.6990181545733392,0.953144516822274,0.0002397818889207,0.8441964285714286,0.0645841905253625,0.0474377452448263,71.07350608143838,1
0.7143435474011762,0.9287155700768296,0.0002111668510686,0.8913246268656716,0.0462436364102441,0.0497091445614416,67.31554160125589,1
0.6093135724787291,0.896428709695251,0.0003512165642107,0.8659420289855072,0.0482076416330984,0.0584633966683428,69.2887029288703,0
0.6266282854023082,0.9087823505829424,0.0002245935266782,0.9409722222222222,0.0295211825721557,0.0334413153536257,63.76383763837639,1
0.8127440915562903,0.92632716405104,0.0001875776539782,0.739453125,0.0388882833766724,0.0378673985562478,81.14104595879556,1
0.6164532918786907,0.9395566132725596,0.0002073669842127,0.73984375,0.0890453656763646,0.0721402302218096,81.09820485744456,1
0.4923693817604684,0.9476490682579332,0.0002196845380957,0.9048295454545454,0.0770151888685605,0.0560359173964479,66.31083202511775,0
0.3905577253594149,0.8943413623426619,0.0003204772358073,0.8977272727272727,0.039806533251863,0.0391465442035043,66.83544303797468,1
0.4781323726884694,0.9112159276453352,0.0002597557940094,0.8125,0.0532545258222054,0.0480184607150671,73.84615384615384,0
0.7311050832768459,0.8737511177354739,0.000178466789047,0.765827922077922,0.0228717577980606,0.0304165164620179,78.34658187599365,1
0.8824002467642929,0.914563976807262,0.0002029232148389,0.7507911392405063,0.0871169684235495,0.0769543706377773,79.91570073761855,1
0.4768014424599026,0.9152438330628484,0.0003253520033315,0.8274647887323944,0.0838950477790958,0.0443517293107849,72.51063829787233,0
0.6324756185941663,0.8963771478216007,6.572940763364864e-05,0.9330357142857144,0.1159759986214209,0.1711632992203644,64.30622009569377,0
0.6645112251278422,0.8999530334806216,0.0002866311852307,0.7042410714285714,0.0429796194508252,0.0465285894752271,85.19809825673535,1
0.6892791816011398,0.9078029604916428,0.0002050558017095,0.7079613095238095,0.066552761628861,0.0975630202570971,84.75039411455596,1
0.6313571516336277,0.8528969347512985,0.0001696169861093,0.8618659420289855,0.1354764845343787,0.1834739322724877,69.61639516552812,0
0.6382416180780667,0.8576576821776235,0.0002261530703869,0.92578125,0.0319740342651267,0.0310009920476185,64.81012658227849,1
0.4983358135583669,0.845995486968382,0.0002413057603169,0.8508928571428571,0.024872121923543,0.0243809218001716,70.51416579223505,1
0.6234836934587799,0.9129751603327604,0.0001788665469235,0.8146404109589042,0.0284859670541337,0.034351317599669,73.6521282186022,1
0.6085981052496756,0.8737158146458799,7.348412546804469e-05,0.9228515625,0.1083896392825836,0.1235029400074192,65.01587301587301,0
0.5904644673949023,0.9092364184360432,0.0002624579473999,0.8216145833333334,0.1025178756220037,0.1044377341620423,73.026941362916,0
0.6549303383362197,0.9115727691518678,0.0001119666653998,0.7149849397590361,0.0386244536241932,0.0306730272985653,83.9178515007899,1
0.5440552014107224,0.608956647407801,0.0002067873694604,0.8362676056338029,0.0487703067843998,0.0734778574518493,71.74736842105263,1
0.5967417914850057,0.8734695849137508,0.000462545264943,0.7727272727272727,0.1249630996301923,0.1236564306008683,77.64705882352942,0
0.4156272398406646,0.9501064022893708,0.0002010753620996,0.92529296875,0.1155639074641128,0.1375180363350943,64.84432717678101,0
0.5075000078905839,0.9570119778394915,0.0002782043210317,0.8963068181818182,0.1111076361442948,0.0922964235910162,66.94136291600634,1
0.6697089275821424,0.9326794583947676,0.0001813419020075,0.8002533783783784,0.0320083523000628,0.0369393013780901,74.97625329815303,1
0.6170659425948983,0.8113560464649622,0.0002213876909211,0.7845394736842105,0.0164884355721738,0.0216506350946109,76.47798742138365,1
0.9141865257406409,0.8547179715686374,0.0001939952382754,0.7572115384615384,0.0186717631373894,0.0266500895444513,79.23809523809524,1
0.7141169190140582,0.8847809014007252,0.0001170779848436,0.9942708333333332,0.0626279073122003,0.0733441865684652,60.34573074908329,0
0.6881555905707535,0.8598149798647046,0.0001261978406234,1.009533898305085,0.0378401930073977,0.0483775003808945,59.43336831059811,0
0.4761165358471854,0.9175481776357972,0.000244476250967,0.8159722222222222,0.0569486787043636,0.0446585736922413,73.53191489361703,0
0.5207250841561571,0.8612211727901765,0.0002064148828617,0.8838619402985075,0.0392345911283826,0.0382732772309871,67.8839050131926,0
0.6086110107485669,0.8975902994280424,0.0001663036825615,0.7934966216216216,0.0303143578629106,0.0306011404120916,75.61468866418308,0
0.5990048782578231,0.8807020496070326,0.000196195969381,0.7453125,0.0266542532956749,0.0314471628391642,80.50314465408805,1
1.118550946883244,0.8208752395375153,0.0001384181622714,0.7295524691358025,0.1592051180820925,0.1541261911957212,82.24219989423585,1
1.224416343729626,0.7199640224043781,7.087988489053419e-05,0.8541666666666666,0.1525064839834845,0.2032310243656364,70.2439024390244,0
0.4459369093519291,0.928005389397894,0.0001601111621833,0.9134615384615384,0.0495682169953154,0.0314931943292912,65.6842105263158,0
0.6519062210914299,0.8600992933654965,0.0004198925867835,0.7384259259259259,0.0974011800924502,0.0871365218349917,81.25391849529781,1
0.7207835428011953,0.9151108644280492,0.000185962194004,0.7916666666666666,0.0516229653890161,0.0412599803651156,75.78947368421053,0
0.512591609731783,0.9256741779082256,0.0002983092372919,0.8167808219178082,0.101402180959948,0.0787302940512029,73.45911949685535,0
0.4799172465136305,0.912382185796711,0.0003475621265769,0.8582427536231884,0.0680464058807452,0.053189839324376,69.91029023746702,0
0.3849895206330022,0.8114834136797732,0.0003175002708803,0.7646103896103896,0.0336287865030301,0.0343824752637613,78.47133757961784,0
0.7264540514477997,0.8551005540886729,0.0002465287190739,0.8791977611940298,0.0228401950498046,0.0233980096602383,68.24403183023873,1
0.3992899708710183,0.9366768060513484,0.0001960392441047,0.91943359375,0.06046609719936,0.0494889557985592,65.25756771109931,0
0.4775955910279869,0.9249477809570956,0.000206736556761,0.8397887323943662,0.0511018495552816,0.034838594669869,71.44654088050314,0
0.3905667370280774,0.8918156502693529,0.0002342281159996,0.8564311594202898,0.0402799731781868,0.0278478996462189,70.058170280275,0
0.6411589442522602,0.9050982658872692,0.0001919606205216,0.7464398734177216,0.0281216338404687,0.0287458190939937,80.38155802861685,1
0.4731522837892708,0.8852947587519411,0.0003560512549181,0.9459325396825397,0.0783887115084991,0.1018045348029822,63.42947037231254,0
0.4414550980591452,0.8981263366944962,0.0003228278052998,0.85,0.0450074398611734,0.0438727573851896,70.58823529411765,1
0.4069044843397798,0.8497643425217963,0.0003261540974551,0.8392857142857143,0.0304750860104928,0.0338585211803725,71.48936170212765,0
1.151029793360009,0.7772805614240365,7.485362715542094e-05,0.8433098591549296,0.1387163070675508,0.2114535684426793,71.1482254697286,0
0.510931890916303,0.902517422316409,0.0004723403140203,0.8805147058823529,0.1069104119382011,0.0948320638593345,68.1419624217119,1
0.4381915647411259,0.9072931248291924,0.000231116200792,0.8336267605633803,0.0745022080356153,0.0344358228137087,71.97465681098205,0
0.4543190399350496,0.837350346572135,0.0001669231124287,1.080681818181818,0.0548405841455166,0.0701354509608477,55.5205047318612,0
0.6494647170772637,0.8698341828382422,0.0002232256066236,0.7229420731707317,0.0340800102963529,0.0306658363414161,82.99420137058515,0
0.6849398029731912,0.8035562133945499,0.000239944484828,0.7612179487179487,0.0187061178364242,0.0236227795630767,78.82105263157895,1
0.5157526594803968,0.8839797916852983,0.0001924415273919,0.8736213235294118,0.0270281543245084,0.0247421403169306,68.67964229352972,1
0.584376699816438,0.894663596124831,0.0002074383619238,0.8450892857142858,0.0400319746246289,0.0364745046951103,70.99841521394612,0
0.5183406113882796,0.9513875496083254,0.0001606434766295,1.031788793103448,0.1113947411944782,0.1085692438112856,58.1514360313316,0
0.5161548308873429,0.9242320650268012,0.0002031097683953,0.8154965753424658,0.0517678645816129,0.0391492093186794,73.5748031496063,0
0.4828892552990099,0.8662235118493377,0.000179369752819,0.815068493150685,0.0246732850188177,0.0227025986642743,73.61344537815125,0
1.022977566944016,0.9544062431627328,5.395090422282289e-05,0.8345070422535211,0.1512304985206391,0.2198632387417233,71.89873417721519,0
0.404668495263673,0.8096945068544227,0.0006455999642508,0.8582427536231884,0.1494043606825727,0.2052700651150892,69.91029023746702,0
0.3888930572203272,0.876324353877777,0.0003521144441395,0.8727022058823529,0.0471243906450098,0.0592681186478843,68.75197472353871,0
0.694308396095887,0.8058915232283717,6.457567580830742e-05,0.7503955696202531,0.0721391456917201,0.1040062867922305,79.95782814971007,1
0.4454375114864816,0.9054884398943388,0.0001649018609665,0.853713768115942,0.0561776793599118,0.0369366384143568,70.28116710875332,0
0.6949107550434759,0.9141931119795156,0.0001329729618392,1.101851851851852,0.0307748513896026,0.0395750570626175,54.45378151260504,1
1.060093935122984,0.8830956376916066,0.0001410915854208,0.9885416666666668,0.0378312912444476,0.0533566112689111,60.69546891464699,0
0.6087431190930582,0.8680431804962315,0.0002885976170767,0.7345679012345679,0.028261182981192,0.0220970869120796,81.68067226890756,1
0.5116206769060597,0.9357768704107696,0.0001226518664681,0.8627717391304348,0.0576018590419733,0.0546546645122003,69.54330708661418,1
0.3966521032226052,0.7654762427743338,0.0005468557017025,0.9182692307692308,0.125323176901318,0.1416520653474121,65.34031413612566,1
0.4544164610239342,0.9167664707855856,0.0003377918833371,0.8668478260869565,0.0884927146083357,0.0563367386791248,69.21630094043887,0
0.4339993225494954,0.7836881646184459,0.0004417617789694,0.8573369565217391,0.0868503087744396,0.1209120137683986,69.98415213946117,0
0.7056287690484337,0.9208341281301023,0.0001591624672727,0.9057765151515152,0.0485015840257547,0.0561698146420573,66.2415054887611,1
0.3155649889317945,0.7490623751193302,8.622940515729917e-05,0.9206730769230768,0.2899082312463354,0.3050628697370224,65.16971279373368,0
0.7625236331578548,0.9624023809945068,0.0002846663952684,0.8065878378378378,0.1421580916717634,0.1684453109290152,74.38743455497382,1
0.7946979908108777,0.9496841702276232,0.0002576253995946,0.8915719696969697,0.1647516367989662,0.1979461853830286,67.29686670207116,0
0.4454497154001437,0.8716375814021148,0.0001677882388537,0.853125,0.0314058613160027,0.0288969151104153,70.32967032967032,0
0.7400256707316617,0.7853360963071807,0.000231939418279,0.7929166666666667,0.0221108319357026,0.0264467370132621,75.66999474513925,1
0.6463210191335144,0.9429406628186272,0.0001334833880695,0.9869791666666666,0.0565649938062893,0.0648396816928792,60.79155672823219,0
1.16088570419448,0.8356016680154308,0.0001318679350832,0.7157379518072289,0.089790174614212,0.1169267933366857,83.8295633876907,1
0.8533386150034242,0.834681570077959,0.0002188997595343,0.7240853658536586,0.0233062269076534,0.0227688837649375,82.86315789473684,0
0.4261710020366502,0.8805552208266227,0.0001507668930224,1.081818181818182,0.0282609775351043,0.0465847495312456,55.46218487394958,0
0.7516541615638811,0.9136299237994284,0.0002055842953546,0.6996323529411764,0.039264292793597,0.027277236279499,85.75932737782449,0
0.6698319191995229,0.94163702044883,0.0003399274005249,0.79625,0.1561549711024276,0.1493846471497458,75.35321821036106,0
0.3015240589592876,0.8505308595023588,0.0002178748189033,0.8514492753623188,0.0873260753813194,0.1046785828072267,70.46808510638297,0
0.5332403501281353,0.8841186522583541,0.0003115996517723,0.8415178571428571,0.041025304069313,0.0216113773377539,71.29973474801061,1
0.4543535089297703,0.7982381923160186,7.534214310649223e-05,1.043859649122807,0.1903888968821902,0.1771216257617912,57.47899159663866,0
0.6028847580974197,0.9095060491723376,0.0002550458161752,0.8272569444444444,0.0416576234399369,0.0296695414548463,72.52885624344177,1
0.500256253305185,0.8853164955038431,0.0001869936466332,0.9115384615384616,0.0303075336778355,0.028437929255002,65.82278481012658,0
0.6024370863227863,0.923964980487704,0.0002272524036536,0.7620192307692307,0.0564434816197318,0.0601211236836689,78.73817034700316,1
0.8269591158759028,0.8002099422375668,3.367588410747741e-05,0.9642137096774194,0.1194386302023989,0.1317953152541881,62.22686879247256,0
0.4605888912945354,0.8802202359755317,0.0001548092669035,0.8568840579710145,0.0251837658957569,0.0251374895793701,70.02114164904863,0
0.7624453489505044,0.892792644696488,0.0002900833994355,0.9163461538461538,0.0410600566784541,0.0443664714515646,65.47743966421827,1
0.5414253381532189,0.893579263298148,0.0001342370558957,0.7985641891891891,0.032549781541458,0.0301608132770694,75.13484928609202,1
0.4481979438442751,0.8831437530075646,0.0003598896607687,0.9365079365079364,0.0497913098862286,0.0641171826021598,64.0677966101695,0
0.5306350123645325,0.8268256902213984,0.000163753514345,0.8224826388888888,0.017911206841982,0.0231607783748642,72.94986807387863,0
0.4762489496715101,0.9268074655889538,0.0001456679543356,1.005296610169492,0.0431145369173066,0.0482031664791919,59.68387776606954,1
0.4825183408970895,0.8847170725743051,0.0020407295440653,0.8745404411764706,0.1950452323590142,0.2543064261781884,68.60746190225959,1
0.3116318374089108,0.8446724023605908,0.0003193285717131,0.964717741935484,0.0447199052677799,0.0476792347487825,62.19435736677116,1
0.6066942127560544,0.9445951280425124,0.0002155402301873,0.923828125,0.057110123114115,0.0759366120367444,64.94714587737843,1
0.4044896240730371,0.948565461275727,0.0002623450186463,1.020474137931034,0.0748903032495433,0.0914371128920587,58.79619852164731,1
1.128371779405229,0.8527845127474785,4.762491021912439e-05,0.819777397260274,0.1397083469038111,0.1963341335934455,73.19060052219321,0
0.4439162969553386,0.8736839203752348,0.0001527413191139,1.104166666666667,0.085475927952022,0.0919641221572355,54.33962264150943,0
0.4094216117539677,0.8321354179401859,0.0003545514961962,0.7771381578947368,0.0321986380764011,0.0297559517855952,77.2063492063492,0
0.7339357185151828,0.7985093230657372,0.0001997725393518,0.7763157894736842,0.0238061099113982,0.0318688719599549,77.28813559322035,1
0.5397307843763152,0.5380875849583229,0.0001566029497202,0.780016447368421,0.1066315697637128,0.1397542485937369,76.921454928835,1
1.146377435412944,0.8938107544883305,8.333875480340735e-05,0.6963235294117647,0.0347693835809908,0.0360843918243516,86.16684266103485,1
0.5473318545338951,0.9457588208713552,9.863980889818632e-05,0.8731617647058824,0.0726742551498926,0.0645647742552149,68.71578947368421,1
0.3325598199001548,0.8717221299148104,0.0003468226919052,0.8852611940298507,0.0516145739144026,0.0592177942774881,67.77660695468914,0
0.3466213113142979,0.860236373122106,0.0003321289445137,0.92626953125,0.0328530197636803,0.0222717701593687,64.77596204533474,1
0.3189484920983238,0.8873798026738327,0.0003205136935965,0.8801305970149254,0.0803728874772744,0.0895524964543821,68.17170111287759,0
0.4591755964989784,0.8565580368472231,0.0002318107988703,0.7555379746835443,0.0387577490946705,0.0326221201695869,79.41361256544502,0
0.6005643945591943,0.90306105167747,0.0002083508305367,0.8133561643835616,0.0435761598649504,0.0351321290709167,73.76842105263158,1
0.5611506222082476,0.878222223739524,0.0001333601942951,1.065290178571429,0.0480785902563661,0.0463512405443479,56.32268203247774,0
0.5136691839676865,0.8292944741264198,0.0004201704901857,0.8699448529411765,0.1356461649627295,0.1945577768807408,68.96988906497623,1
0.7149547619420755,0.9316435913822922,0.0002716797548923,0.9581653225806452,0.0331781889936135,0.0288527209842801,62.61967385586534,1
0.8398594505879364,0.8873427264007597,0.0001596248821457,0.8424107142857142,0.0250199219092893,0.030330680525821,71.22416534181241,1
0.4492454506287976,0.8597469401531981,0.0003426423564409,0.8717830882352942,0.0289303138520903,0.0337178536789698,68.82445967316816,1
0.501675343124998,0.9140598986578188,0.000257951287036,0.7865953947368421,0.0583287665880763,0.043898557303553,76.27809722948248,0
1.002899132539431,0.9066824236022574,0.0013860540078604,0.8340669014084507,0.191103255207655,0.2750050730051564,71.93667546174142,1
0.4187793283241442,0.8646005040418743,0.000449898282299,0.890625,0.1293341869455976,0.171864073079235,67.36842105263158,0
0.8635173330426766,0.9424904232914708,0.0001567098827317,0.7012648809523809,0.0723861210633977,0.1001810296653976,85.55968169761273,1
0.9657137090255722,0.7995587916803777,0.0005688441595942,0.7715097402597403,0.0538351928532156,0.0518222623493031,77.7695949500263,1
0.8853983782704801,0.8060129983407075,0.0002074176973834,0.7011029411764705,0.0211389066345074,0.0248226596988277,85.5794441531201,0
0.4852237037314095,0.8100688215378127,0.0001944900496244,0.7970833333333334,0.0290354189836405,0.0274265758127187,75.27443805541034,1
0.5948145148133714,0.9515976290590576,0.0003434199877896,0.8216145833333334,0.1535740916548236,0.1444487000170639,73.026941362916,0
0.3780472589432865,0.8500167224917534,0.000351578559422,0.8294270833333334,0.0413193532620375,0.0381833281589724,72.33908948194662,0
0.673099095515628,0.9330488824438004,0.0001564518395671,0.8800551470588235,0.0478184150625679,0.0479889407346715,68.177545691906,1
0.719833621124191,0.9671441257233184,0.0001745263345963,1.087962962962963,0.0984680974775611,0.0730989410913677,55.14893617021276,1
0.5457137245877791,0.9159816822885009,0.0002560266579314,0.7933333333333333,0.0969446434254564,0.123619915248094,75.63025210084034,1
1.182455750056574,0.8098465497492043,7.155652644932043e-05,0.8833955223880597,0.138663464000463,0.1976797824804427,67.91974656810982,0
0.3643056118460068,0.8604384594251729,0.0003273809328369,0.8504464285714286,0.0460168038573399,0.038180717779331,70.55118110236221,0
0.4812172464451656,0.919979124417091,0.0001671675756464,0.8459821428571429,0.0656189258607792,0.0432227546755077,70.92348284960421,0
0.4342757810607298,0.8480704452462305,0.0003233895899088,0.8736213235294118,0.0443349237557113,0.0450111408265494,68.67964229352972,1
0.5482630244861773,0.898886017551962,0.0002811552360372,0.8091216216216216,0.0602569560193816,0.0654279903237767,74.1544885177453,1
0.711513893476596,0.9272400432123442,0.0002317887059845,0.703125,0.0424498566237973,0.0351484052492608,85.33333333333333,0
0.3457526034068537,0.8246719176199981,0.0003244179601275,0.8298611111111112,0.0341091713617856,0.0378213927094028,72.30125523012552,0
0.6578600686792269,0.8322974043926344,0.00028635554006,0.7072172619047619,0.0388101257758968,0.0523587097620998,84.83955812730143,1
0.6338007481607394,0.9416561169768056,0.0001221760939064,0.8736213235294118,0.0811781751839091,0.1105184103661048,68.67964229352972,1
0.8663503061028961,0.937327058666976,0.0001593061615308,0.85,0.0505549559531859,0.0440337588707783,70.58823529411765,1
0.7659840074741501,0.9413752985730184,0.0001806544120068,0.78125,0.0392675539023464,0.0355390043942332,76.8,1
0.4310865345764774,0.9084390280876656,0.0001668065635517,0.8517857142857143,0.053265495493838,0.0366680047516055,70.44025157232704,0
0.8254861502407488,0.8780438982184247,0.0002187363924805,0.7353395061728395,0.0264830282434112,0.0327752765053172,81.59496327387198,1
0.6136828164209567,0.8633647111662159,0.0002488899905356,0.7983333333333333,0.0331871795862331,0.0314604400881573,75.15657620041753,1
0.4056531314196504,0.9475128550962052,0.0002337938480758,0.9267578125,0.0665711990904463,0.0577296569680679,64.7418335089568,0
0.6629057576899583,0.903343502981399,0.0001831033979592,0.7616185897435898,0.0245701091449711,0.0256806688629161,78.77958968963704,1
0.560222572132505,0.8229826819035263,0.0001837450680019,0.74140625,0.0385829944527054,0.0292052562678516,80.92729188619599,1
0.3564940736464394,0.8553115424873956,0.0001507836140362,1.127948113207547,0.0863349302722789,0.0929452640826019,53.19393622582332,0
0.6304577665561065,0.9147954852597971,0.0001970304263333,0.8963068181818182,0.0474737925200806,0.0265731030873759,66.94136291600634,1
0.4767478942075528,0.9471778165931004,0.0001574411479572,0.9125,0.0890993935056626,0.03622507224803,65.75342465753425,0
0.7867962618891107,0.8972872910486174,0.0001813860133768,0.8229166666666666,0.0523431021933379,0.0282445619843916,72.9113924050633,0
0.6876634875406206,0.9234278943566298,0.0002317875919695,0.9495967741935484,0.0352101798318003,0.0288527209842801,63.18471337579618,1
0.6794267531700231,0.9361307679293968,0.0003422659144557,0.780016447368421,0.0680966241667318,0.1113365767990616,76.921454928835,1
0.4901473944119245,0.9177875465586652,0.0002330514081056,1.03344298245614,0.0330406122221915,0.0344358228137087,58.05835543766578,1
1.3556709743942,0.9269821376435976,6.358356300900082e-05,0.8015202702702703,0.1634677873298637,0.194641398403841,74.85774499473129,0
0.45961813739695,0.9069417533837614,0.000365751197006,0.8189212328767124,0.0441817323542488,0.0541265877365274,73.26711970726608,0
0.5250551925495446,0.8378173322948789,0.0002416402352774,0.8159246575342466,0.0240184248957286,0.0282884908625005,73.53620146904512,0
0.3626910677002473,0.8023803209954147,0.0002005551573035,0.9067234848484848,0.0450209153580201,0.0497892191759807,66.17232375979113,0
0.3593066441518187,0.8846760388048682,0.0002028971998887,0.9404761904761904,0.0451361633574497,0.0429286378021523,63.79746835443038,0
0.431341705909946,0.8877805116216789,0.0001767703811387,0.9591733870967742,0.0300100315455729,0.030992793980029,62.55386232264845,0
0.3304924579930887,0.8767409485102767,0.000208490482017,0.9120192307692307,0.0519720210914619,0.0300044755776117,65.7880864522931,0
0.5433632190226119,0.8830678957138228,0.0004126747168439,0.746484375,0.0452838675701333,0.0360272510255181,80.3767660910518,1
0.79155897762813,0.9361307231568462,0.0001174626897359,1.10474537037037,0.0859311671503755,0.0901428700913271,54.31115767417496,1
0.5652816165970417,0.9643154627198552,0.0003104063497034,0.8605072463768116,0.1096276468870092,0.0985300976710102,69.72631578947367,1
0.484409976240981,0.8476404237983313,0.0001997168090722,0.8133561643835616,0.0607575171205827,0.0679083583875276,73.76842105263158,1
0.5132132559207945,0.8548545870765558,0.0001208158397332,1.040021929824561,0.0613251379566208,0.0603711086441898,57.69109119662625,0
1.003047075246334,0.7802018602818784,4.456211560807701e-05,0.8731617647058824,0.0571924602430295,0.0670020327158788,68.71578947368421,0
0.9376101947352824,0.9397732843379912,0.0002236858513371,0.7576121794871795,0.0755896123756167,0.0701488445351054,79.19619249074563,0
0.6052801827652603,0.9138520450371058,0.0002507577325293,0.9228515625,0.046864826369929,0.0340965453493738,65.01587301587301,1
0.5513392171031637,0.373112144233647,0.0002752423813582,0.8172743055555556,0.0939898151223842,0.1303857359562198,73.41476367498672,0
0.4037407552407227,0.9080363473873312,0.0002549867778649,0.8722426470588235,0.0427858890158359,0.0362187848102932,68.7881981032666,1
0.4041110497609686,0.8172097028157393,8.335724060750637e-05,1.0546875,0.1725079659780755,0.1898058966657541,56.88888888888889,0
0.8024799662680233,0.8708783145799633,0.0002096861704226,0.7345679012345679,0.0241180549507527,0.0294397557522137,81.68067226890756,1
0.4023888503648562,0.4066068724067638,0.0002726154186384,0.8091216216216216,0.1461758777473499,0.2185358540847427,74.1544885177453,0
0.4032303638281526,0.8816193980430768,0.0001048441747114,1.105902777777778,0.0782791688721909,0.0789169763165277,54.25431711145998,0
0.3933464714781598,0.9317970259109708,0.000263986341443,0.8663949275362319,0.0697522583629654,0.0932123060939538,69.25248301097751,1
0.9257445975828328,0.919500525065456,0.0001501386003495,0.8653492647058824,0.2808543659784644,0.339483358295663,69.33616569304301,1
0.7239560596647476,0.9428113552917604,0.000199968805665,0.7759046052631579,0.0897427790591824,0.0304052489985967,77.32909379968204,0
0.3243903445820162,0.8726527410124109,0.0002197681328668,0.8699448529411765,0.105785410265208,0.1240049010526384,68.96988906497623,0
0.7207333685424197,0.9291676651461308,0.0002784815265623,0.74296875,0.0558962400205729,0.0342687512192461,80.75709779179812,1
0.8706269335701515,0.9079674685690996,0.0001541973461587,0.8103595890410958,0.0275307109431738,0.0287639609822584,74.04120443740095,1
0.5446500466161884,0.8859569060881646,0.0003425053634082,0.8948863636363636,0.1379036305874544,0.1747250587461517,67.04761904761905,0
0.6697787861298412,0.9317612331482557,0.0001337553223301,0.9880208333333332,0.0356723308878495,0.0514616855995386,60.72746441750132,0
0.553839448339385,0.8160787435609227,0.000139219770564,0.9034090909090908,0.039874059226188,0.0426369400150404,66.41509433962264,1
0.545219754056266,0.781636554387982,0.0002396950225402,0.7727272727272727,0.0171802033186012,0.0229527725936724,77.64705882352942,1
0.5575337918419611,0.8948294464605697,0.0002389553944894,0.7879166666666667,0.0347211110933327,0.0392940770758551,76.15018508725542,0
0.7669429604469475,0.8799380169928175,0.0003241476847705,0.6970588235294117,0.0349051792688762,0.0261900534327351,86.07594936708861,1
0.6985600681951114,0.8924330051599325,0.0003753321118494,0.744140625,0.0395574116741651,0.0258364806848226,80.62992125984252,1
0.8480695646055655,0.9107096285806344,0.000176780902093,0.7763157894736842,0.0295824107707318,0.0279508497187473,77.28813559322035,1
0.3139337237400769,0.8915245862194384,0.0003480777758695,0.9404761904761904,0.1047179290818999,0.1443011873176736,63.79746835443038,0
0.368242892837632,0.8448332350502039,0.0003527190655229,0.7951858108108109,0.0367398648648648,0.0371199347358602,75.45406266595857,0
0.9228946671417144,0.932102523136166,0.0001583108294004,0.7825,0.039011216335818,0.0211823246688926,76.67731629392972,1
0.6584953503474004,0.9169573243250674,0.0001305579860376,1.120872641509434,0.0315654689017079,0.039480931984752,53.52972119936876,1
1.168522191477443,0.9251326507375398,5.767650072065505e-05,0.8927238805970149,0.1699003666240035,0.2478004565933622,67.21003134796238,0
0.5487803124039113,0.8886948943370573,0.0002406567339291,0.7853618421052632,0.0383879605821835,0.0425428705347127,76.3979057591623,0
0.9349831233262786,0.8734360694227653,0.0001437051455027,0.952116935483871,0.0362517996700635,0.0504526132972771,63.01746956061408,0
0.2747829219168139,0.8609121617546475,0.0003261997504785,0.9503968253968254,0.0518252297087657,0.0423746966874671,63.13152400835073,1
0.5716076007849072,0.8166445746589633,0.0002464839498071,0.8074324324324325,0.0308363788235281,0.0392227023127209,74.30962343096235,1
0.6321625891245864,0.8668667221128141,0.0001224888097307,0.7791940789473685,0.033754692624162,0.0239356776939084,77.00263852242743,1
0.6495459300063606,0.9242587929563926,0.0002513249273233,0.7904166666666667,0.0838173443997256,0.0407773908938287,75.90933052187665,1
0.3867228709851618,0.8559303845053066,0.0003474244381807,0.8522321428571429,0.0419001219191154,0.0420610860982941,70.40335254059717,0
0.524303591444554,0.8870324400203332,0.000239619869259,0.7841666666666667,0.0342985260454278,0.0314604400881573,76.51434643995749,0
0.522969788010181,0.872806464573035,0.0002382467677818,0.79375,0.0288675134594812,0.0359622784730469,75.59055118110237,0
0.4528443862016783,0.875486496092343,0.0020144827260999,0.8535714285714285,0.1922423235642655,0.2731316223950898,70.2928870292887,1
0.6566343414646296,0.8949976359003258,0.0003820045069278,0.7214176829268293,0.0320779123651203,0.0325723316654404,83.16957210776545,0
1.024069558864418,0.7860595436043991,0.0006786291121758,0.8017979452054794,0.1548498204046083,0.2147766625053673,74.83182060864922,1
0.4248829605821169,0.9095713866590436,0.0001787496825523,0.9503968253968254,0.0631501208842839,0.0667647757598126,63.13152400835073,0
0.2964775555878458,0.8561102170381779,0.0003248869543022,0.8717830882352942,0.0379490976897053,0.0372112640425152,68.82445967316816,0
0.5651839015357052,0.9430315948690328,0.0001528215988878,0.8614130434782609,0.0780984122999995,0.102600045328794,69.65299684542587,1
0.3638689726565391,0.9020787461113278,0.000201281534429,0.9076923076923076,0.0476082929352966,0.0574099158464807,66.10169491525424,0
0.7543086854574954,0.7840714221724637,0.0001969998371101,0.7025735294117647,0.0201167117945653,0.0264110704602661,85.40031397174255,1
0.4347642080478961,0.9119472468681163,0.0002503566718497,0.8889925373134329,0.1004716579378778,0.1023516109923399,67.49213011542497,0
0.6500493620996237,0.9053787237147582,0.0002713149838766,0.7330246913580247,0.0657065892572299,0.0223715954113693,81.85263157894737,1
0.4315818879160048,0.9359566965902316,0.0001575382282807,0.9449404761904762,0.0792751226301619,0.0502012080564061,63.49606299212599,0
0.6329512380073712,0.9046312521718816,0.0001751870923376,0.7841282894736842,0.0264279834937852,0.0330718913883073,76.51809124278972,1
0.8373926867646484,0.9690215763678002,0.0002300501460583,0.747626582278481,0.134044998073678,0.1707238548515837,80.25396825396825,1
0.3911406423112538,0.8950622991303201,0.0002673791394558,0.8609601449275363,0.0612502384376962,0.0865826386108874,69.68963703314046,1
0.411541534002876,0.9463150454573376,0.0002279646080724,1.011853448275862,0.0733629680037298,0.0960963686171517,59.29712460063897,1
0.4791418422751956,0.9266731103995792,0.0002617357049894,0.8167808219178082,0.0682921923524992,0.0484403000982767,73.45911949685535,0
0.9063538063471188,0.9107162419058844,0.0002935114229764,0.914903846153846,0.0415691660023409,0.0512299884711093,65.58066211245402,1
0.2461003986722174,0.6657605866153606,0.0007667889516573,0.9345703125,0.1259387055521548,0.1332821702432921,64.20062695924764,1
0.7769059336982638,0.906147214969928,0.0001121073904061,0.7248475609756098,0.035676919934355,0.0290506953657665,82.77602523659306,1
0.5722011322311269,0.921545634781832,0.0003503676153864,0.882929104477612,0.079230661819351,0.0773158858975386,67.95562599049128,0
0.7789493044377492,0.8449726156690796,0.0002704426051704,0.734375,0.0242061459137963,0.0230552960773699,81.70212765957447,1
0.5482877146037304,0.8688746621679836,0.0001643343992509,0.8220486111111112,0.0283550051580921,0.0237472200003806,72.9883843717001,0
0.5650281776333744,0.9277637519778446,0.0003207365088517,0.8495535714285715,0.062117772543905,0.0521286035142686,70.62532842879664,0
0.6699967638147735,0.8916476861350376,0.0002129886151108,0.7240853658536586,0.0340949226316235,0.0284213637912237,82.86315789473684,0
0.7078509347434744,0.8852018125057927,0.0002816074026674,0.7023809523809523,0.037807577428311,0.0242547039283229,85.42372881355932,1
0.3793626659394134,0.8864571795823203,0.000125111079499,1.042763157894737,0.1387245584471023,0.0899528646411155,57.53943217665615,0
0.7611116089579935,0.9377026374338104,0.000109436806901,0.7608173076923077,0.0484709414844864,0.0390117364957724,78.86255924170617,1
0.6819978871381204,0.892506655988804,7.362790132623937e-05,0.9296875,0.0955235879737303,0.1381366035131845,64.53781512605042,0
0.3585870879631596,0.904305047206688,0.0002783859218083,0.8958333333333334,0.1063687690313869,0.0361537182894629,66.9767441860465,0
0.4414921257500227,0.8789231020458395,0.0003594653461468,0.92626953125,0.0545106480546945,0.0642126458642601,64.77596204533474,0
0.2757583529998451,0.9190126566714154,0.00034803058999,0.96875,0.1290332909133702,0.1355568184993535,61.93548387096774,0
0.5289261270211724,0.7684082605517718,0.000372069672997,1.056361607142857,0.1411720069097167,0.1303540850913388,56.79873217115689,0
0.8706889486132933,0.8855500988613897,0.0001526721912199,0.7985641891891891,0.0230568136735113,0.0299382212070305,75.13484928609202,1
0.5747801620599108,0.9076081994989788,0.0003617356787805,0.8801305970149254,0.0747346469808017,0.069452335410261,68.17170111287759,1
0.3440565801399604,0.7635501523566693,7.620790817153645e-05,0.9474206349206348,0.2469949224519751,0.2439089122186342,63.32984293193717,0
0.6936072468176001,0.8342759271255927,0.0001477230620304,0.8722426470588235,0.0212592527687874,0.0275305122451002,68.7881981032666,1
0.4326446058327314,0.9451397901605422,0.0002129582349318,0.93359375,0.0697678558573896,0.0542695908595549,64.26778242677824,0
0.3266102369234686,0.4180436250439685,0.0004281130400238,0.748046875,0.1072726235881475,0.0914133919502394,80.2088772845953,1
0.6500618423339382,0.8851962941385085,0.0001906949698185,0.7556089743589743,0.0268279952608705,0.0289318781178922,79.40615058324497,1
0.7418900978735303,0.9195717499868262,0.0002064348930959,0.747265625,0.0309334553858662,0.0300398601228855,80.29273392577103,1
0.6419522476114177,0.804765043979231,0.0002607661488542,0.7779605263157895,0.0193562537762168,0.0284128785353872,77.12473572938688,1
1.129255645157399,0.8066956475184267,5.347629579723819e-05,0.8558035714285714,0.1569886875636559,0.1965652756940952,70.1095461658842,0
0.8252751343466256,0.9002230192029328,0.0001555023984266,0.8019425675675675,0.0268316683135558,0.0320947468282989,74.81832543443917,1
0.9283194163190734,0.8934492332964176,0.0001338740426649,0.7564102564102564,0.041372854626364,0.033217296679611,79.3220338983051,1
0.6456099771073263,0.9146081690134952,0.0002209076504293,0.7608173076923077,0.0402898288581392,0.0356126801436368,78.86255924170617,0
0.4252828980736949,0.8290558159547734,0.0002453954443027,0.79375,0.043600936534284,0.0391257933172313,75.59055118110237,0
0.6615767774447314,0.9091445199210888,0.0001768178427628,0.7579113924050633,0.0349715761159815,0.0316481052213645,79.16492693110646,1
0.4871687388060561,0.9230398949252062,0.0002588358855847,0.9404761904761904,0.0533228359141932,0.0671177197649891,63.79746835443038,1
0.7416900151871695,0.7752186484498397,0.0002301998270582,0.8982007575757576,0.0232779328660641,0.0262888906047929,66.80021085925145,1
0.4702957304866655,0.92518748344832,0.0003836162167176,0.85,0.0552995091685786,0.0508921760878479,70.58823529411765,0
0.6814993655239922,0.7982003358315279,0.0002298562201898,0.6970588235294117,0.0209074517766366,0.0255155181539914,86.07594936708861,1
0.6994764657578991,0.7821145500217307,0.0001151532492009,0.9738729508196722,0.2073029759012691,0.2587655993687466,61.6096791162546,0
0.6684304185222063,0.96114105983518,0.0002762792429451,0.748828125,0.0806534212866036,0.0767078750928861,80.12519561815337,1
0.7343093236688606,0.858448944733703,0.0001985874091884,0.9901041666666668,0.1876294402742781,0.1908684018428244,60.59968437664387,0
0.5982691184803081,0.9078138004886732,7.113330585581634e-05,0.9795081967213116,0.1326893710705904,0.1505199322349037,61.25523012552301,0
0.4724064723676429,0.933776160824618,9.89284062152264e-05,0.93017578125,0.1259415452179687,0.1735912687073534,64.50393700787401,0
0.3981625839822578,0.6298737834356716,0.0003406639343371,0.8177083333333334,0.0826797284707684,0.0640219620108467,73.37579617834395,0
0.9757285622180772,0.8772400879052383,0.000149855847552,1.007944915254237,0.0428992727358402,0.0553568945648332,59.52706253284288,0
0.4849708070604888,0.8946461472862772,0.0002429349161331,0.8057432432432432,0.0427585137123214,0.0464089272381646,74.46540880503144,0
0.4258952600103856,0.8863794318956242,0.0001948649743333,0.8654891304347826,0.0392064730214296,0.0353472141967452,69.32496075353218,0
1.099664903556134,0.952392333211752,5.414178886021324e-05,0.8815298507462687,0.1680296011723142,0.2641307122315377,68.06349206349206,0
0.3893504165406063,0.8686369846242897,0.0003533094775848,0.863677536231884,0.0518484780542162,0.0462581968094177,69.47037231253277,0
0.7040205025725995,0.844557660424955,0.0001472595753681,0.7149849397590361,0.0190349768972357,0.022364940169392,83.9178515007899,1
0.7761194033863544,0.700664661383921,5.90101049121859e-05,0.9115384615384616,0.1389531204203641,0.2248385379868462,65.82278481012658,0
0.5993692856263919,0.9052551351275026,8.343933171326314e-05,0.8754595588235294,0.1432548865446586,0.1418761711767032,68.53543307086613,0
0.523075079472525,0.917148187805244,0.0002388777387254,0.8006756756756757,0.0502587011716616,0.0468393128992805,74.9367088607595,0
0.5252126471334805,0.9146801597309482,0.0002357369562243,0.996875,0.0377163895629826,0.0414897373465384,60.18808777429467,1
0.7927203395269847,0.8567842813959222,0.000225335058226,0.7981418918918919,0.0193520933064013,0.0234196564496402,75.17460317460318,1
0.669499574978415,0.8970793954725543,0.0001803954852532,0.7576121794871795,0.0274928501030412,0.0261698684174569,79.19619249074563,1
0.5373882408485408,0.9465141425355312,0.0002192512209658,0.8871268656716418,0.0583898595318239,0.0459987545121242,67.63406940063092,0
0.5390143928610456,0.8255430500538017,0.0002440016425904,0.8159246575342466,0.029515948931401,0.03125,73.53620146904512,1
0.470273290156585,0.9263363694583552,0.0002107009242469,0.9561491935483872,0.0457560250676869,0.0322583227283425,62.75171323141803,1
0.9172563963071791,0.8387922219808729,5.041314246338869e-05,0.7584134615384616,0.0818691089769787,0.1052232668026581,79.11251980982567,1
0.7521889403516074,0.9160242024104356,0.0001225877282456,0.9591733870967742,0.0542976338504117,0.0558730539324431,62.55386232264845,0
0.3747388806616984,0.911594511851454,0.0001952555094495,0.8920454545454546,0.0452469216492435,0.0373796144565868,67.26114649681529,0
0.9934735969880298,0.8878748143161079,6.122192422018473e-05,0.846875,0.0695067924481382,0.1003842256214749,70.84870848708486,0
0.4509049558744766,0.8547791458997139,0.000325552669082,0.85,0.0315167189191478,0.038180717779331,70.58823529411765,0
0.6971871263737174,0.8970052905528844,0.0003634851431781,0.8495535714285715,0.0381976975011289,0.0480307400812607,70.62532842879664,0
0.6581808684184598,0.9354298757517858,0.0004470441580165,0.7301829268292683,0.0531299753592788,0.0456699529096038,82.17118997912317,0
0.4425167142452322,0.9264520021058988,0.0002929605186618,0.9875,0.0630703145967525,0.07972410051791,60.75949367088607,1
0.5959485793654522,0.8844389991392968,0.0001986191844936,0.744140625,0.032435990902998,0.0310515852955543,80.62992125984252,1
0.4538384968712172,0.7468433572389075,8.592997521550457e-05,1.086363636363636,0.1936458331017891,0.189991166948673,55.23012552301255,0
0.5489001426498555,0.8840177327495227,0.000240211058738,0.7904166666666667,0.0367187130614471,0.0435928645289322,75.90933052187665,0
0.7217526456629842,0.9279486082449908,0.0001327835560921,1.091435185185185,0.036010067560426,0.0369256328109697,54.97348886532344,1
0.7816791800712423,0.933404874795144,0.0019325213731418,0.8380281690140845,0.190650602872167,0.2637935813688964,71.59663865546219,1
0.9776939211122408,0.8257191888302282,0.0002210907894765,0.6985294117647058,0.0622616562647545,0.0692923682065107,85.89473684210527,0
0.5866599125264886,0.8255277090089502,0.0001788015273263,0.8263888888888888,0.0207608693456621,0.0269996902694806,72.60504201680672,0
0.7465144590743307,0.931483801397058,0.000133955283784,0.8833955223880597,0.0322064860105075,0.0376889180722204,67.91974656810982,1
0.5800899812660588,0.8940723221166371,0.0003500909415807,0.8704044117647058,0.0368450409059328,0.0499241495566546,68.93347412882788,0
0.7443407998528042,0.8996166675741007,0.0002336361928223,0.7131024096385542,0.0303502157587599,0.0345098518983895,84.13938753959873,0
0.4050145420114033,0.8832220292116525,0.0001484922557177,1.124410377358491,0.0443982325401337,0.0644235254002759,53.36130047194546,0
0.4442615785480552,0.8384696777518487,0.0003278767385711,0.8411091549295775,0.0286057690304083,0.0284455934322749,71.33437990580848,0
0.5609608694975124,0.8884119539268834,8.294121872548647e-05,0.908653846153846,0.0546260485255412,0.0740128723495953,66.03174603174604,1
0.773050335499766,0.8101604016523279,0.00018634304282,0.7568108974358975,0.0163282723335856,0.0256806688629161,79.28004235044997,1
0.810194810736859,0.761430235436435,0.0003284354491191,0.7244664634146342,0.1327735370376664,0.1165136231636286,82.81956864807995,1
1.130693443130764,0.874038059008454,4.89234854668582e-05,0.8513392857142857,0.146426529820262,0.2251584586946249,70.47718930256949,0
0.871902326755528,0.9122556594645622,0.0002351035043178,0.8450892857142858,0.0455729014820188,0.02319088245379,70.99841521394612,1
0.5053366537204822,0.7563882187642483,0.0001526086840232,1.024245689655172,0.0296140217320286,0.0491498447285655,58.57969489742241,0
0.738357168028899,0.9678217172804056,0.0001989985520744,0.7388117283950617,0.0606016966268246,0.0497797885064812,81.21148825065275,1
0.4600735800528249,0.8801741985871918,0.0002370326510755,0.8259548611111112,0.0363936885551241,0.0280000157193114,72.64319495533368,0
0.896489753891119,0.847640490986082,0.0001311207239971,1.103587962962963,0.0647243291992657,0.0800758779309668,54.36811746198217,0
0.7105715541387517,0.8795915345322153,0.0001232885076521,1.064732142857143,0.0632921735658831,0.0671561105322381,56.35220125786164,1
0.6299702900063934,0.9139931977725888,0.0002107964132846,0.8894589552238806,0.0833518951630174,0.0885555915966366,67.45673833245935,1
0.5628028974382281,0.9122997386482036,0.0002315568919764,0.7828947368421053,0.0438716403564116,0.0367990036096993,76.63865546218487,0
0.6060496784815455,0.8658928549724078,0.000371326190023,0.7539556962025317,0.0278476517512627,0.0364297048771452,79.58027282266526,0
0.5418161938330479,0.9052818991611474,0.0003153469806418,0.8455357142857143,0.0477991386225863,0.0307937711328072,70.96092925026399,1
0.3703057433027616,0.6991667369071498,0.0002266068537395,1.080681818181818,0.1041897357375373,0.122884294230461,55.5205047318612,0
1.009837633794151,0.9431020348666916,0.0002943820960441,0.7149849397590361,0.1569185689241051,0.205181312962522,83.9178515007899,1
0.7849922759478857,0.9415494060132064,0.0003340877668857,0.752373417721519,0.0833160149311966,0.0809195697147514,79.74763406940063,1
0.4506183324546216,0.9483120590373209,0.000195896462683,0.9034090909090908,0.0735351085542317,0.0663478957407902,66.41509433962264,0
0.4692455312450236,0.7713123768673218,0.000377966285246,0.8433098591549296,0.0970647785802102,0.1099791985201877,71.1482254697286,1
0.7529123284832977,0.8807208734529312,0.0001400594212735,0.8713235294117647,0.0248671861368909,0.0347817690065338,68.86075949367088,1
0.5727831191591359,0.9371498974388164,0.0001982799499935,0.7759046052631579,0.0440159205479822,0.0450693909432998,77.32909379968204,1
0.4388204697873369,0.8948683010661899,0.0002592473504494,0.8233506944444444,0.0433137106958058,0.0441941738241592,72.87295730100158,0
0.3959811842518732,0.942015602817914,0.0002857444391046,1.030172413793103,0.053174266342566,0.0727598564493245,58.24267782426779,1
0.5433507445977593,0.8656652662857722,0.0003873552933077,0.8963068181818182,0.1001831731041165,0.143676820838136,66.94136291600634,1
0.387629643913935,0.9487889321014918,0.0002373747845347,0.9192307692307692,0.0749383375707642,0.0672056661487705,65.27196652719665,0
0.7214534222814285,0.4359086584483614,0.0001086094810311,0.7376543209876543,0.0892947294967455,0.1219350813445417,81.33891213389121,1
0.3985682393398671,0.8987527615126905,0.0003396650915987,0.8623188405797102,0.0677836483111221,0.0445179449937953,69.5798319327731,0
0.5001949742398607,0.9099615636494884,0.0002402560326163,0.9692622950819672,0.0317540311830158,0.0327752765053172,61.90274841437632,1
0.7197505310834961,0.8740731095047017,0.0001797572951844,0.7326388888888888,0.0259837318525968,0.0242061459137963,81.8957345971564,0
0.4389528049586428,0.8393039821162216,0.0001721646633419,1.068080357142857,0.0660559676649897,0.0717575621608811,56.17554858934169,0
0.6849450527198212,0.9015991061731606,0.0001798223210015,0.7920833333333334,0.0252556374344862,0.0269411113306361,75.74960547080484,1
0.8448945382778248,0.7776161124852977,0.000272808930019,0.8927238805970149,0.0265735439053061,0.027738292643706,67.21003134796238,1
0.9956900301239217,0.8660638256660245,0.0002439647484174,0.6922238372093024,0.1235855145343405,0.1656024540703357,86.67716535433071,0
0.6658498486374063,0.946311054296452,0.000177048926897,0.7828947368421053,0.0450279566513283,0.0383582346656707,76.63865546218487,1
0.66320209999977,0.7869486324908995,0.0001389583451706,0.8586956521739131,0.0196267651087141,0.0310193695417025,69.87341772151899,1
0.6083170644258585,0.880207596278463,0.000206667164119,0.8190104166666666,0.0320799088405076,0.0321182207731655,73.25914149443561,0
0.8077375232559405,0.7883498137146338,5.933146715356532e-05,0.8056506849315068,0.166508015046944,0.2248046026552837,74.4739638682253,1
0.6873224920639376,0.9370874011386132,0.000316561455877,0.7640224358974359,0.074330518220568,0.0746168514009202,78.53172522286313,1
1.342018665080454,0.9044464840076452,0.0001509327447643,0.8889925373134329,0.2342449005886169,0.2751871780344162,67.49213011542497,1
0.579463606804091,0.8896412190316779,0.0001092027017196,0.8694852941176471,0.0791188941788872,0.1053185687940917,69.00634249471459,1
0.7671359891999434,0.9034411216688888,0.0002066584032452,0.6813936781609196,0.1177722794903631,0.1303802160097313,88.05482340537691,1
0.5905159057229863,0.8046105000179614,0.0001040976271638,1.046600877192982,0.1964357225996983,0.183789551744263,57.32844421162913,0
0.6858909236128815,0.8642362064639766,0.0007467103730236,0.8504464285714286,0.1661080268812671,0.2378739428377127,70.55118110236221,1
0.3725108916288346,0.8980590384254118,0.000341672759889,0.9189453125,0.0715427847945014,0.0833333333333333,65.2922422954304,0
0.7311544531787655,0.8377504564756307,0.0001848701308775,0.73984375,0.0196247760735632,0.0253535132262058,81.09820485744456,1
0.6623505180245362,0.8932979353940979,0.000179904659408,0.7624198717948718,0.0266388625158321,0.0324446957023914,78.69679453494483,1
0.4354396285039162,0.8959383088402464,0.0002177463005305,0.9139423076923076,0.0564448466209198,0.0453865235883681,65.64965807469753,0
1.275034473351289,0.7725065883794007,6.61626708913827e-05,0.8915719696969697,0.1698807946876163,0.2192987622294859,67.29686670207116,0
1.113924169839476,0.9227366596938776,5.29884214062456e-05,0.8972537878787878,0.162449470537999,0.2335321382923229,66.87071240105541,0
0.576020201838279,0.8993860577296519,0.0002576677485905,0.8477678571428572,0.0759834018697101,0.0847089807106866,70.7740916271722,1
0.8421319583284642,0.8775071125892475,0.000239025331559,0.7977195945945946,0.0263081387283319,0.0280940659409756,75.21439915299099,1
0.4679838630812209,0.8928377376959049,0.0003443985513203,0.8336267605633803,0.0613392763169204,0.0422577127364258,71.97465681098205,0
0.850868206536071,0.898268847957618,0.0001562906819003,0.8006756756756757,0.0244786769361308,0.0318856583040001,74.9367088607595,1
0.4860815457621121,0.9480536551169744,0.0002589930403539,0.9158653846153846,0.0582505047340806,0.0608924112035933,65.51181102362204,1
0.469628032244623,0.8628152628935261,0.0001630075975501,0.8411091549295775,0.0238895541287181,0.0247757802241278,71.33437990580848,0
0.4372058332318018,0.954904436322298,0.0002329495862113,0.9201923076923076,0.0936747725791286,0.0737029775941922,65.2037617554859,0
