sample_entropy,shannon_entropy,rms,zero_crossing_rate,Label
1.317331790455797,0.7768614804244353,6.966203530302239e-06,0.2944444444444445,1
1.024456081879668,0.658816527573455,5.654341141437007e-06,0.1776909722222222,0
0.0927305142381794,0.7155231816158363,3.660196043227569e-05,0.1646701388888889,0
1.497688248125305,0.8152000659371569,7.237971454795608e-06,0.2430555555555556,1
1.634649842678727,0.9107884225352226,3.602806750434007e-06,0.2989583333333333,0
0.690080998295029,0.5036051444785673,2.090265882705546e-05,0.1874131944444444,1
0.7217556602817831,0.5029146997984941,1.341526830060729e-05,0.1302951388888889,1
1.527053726318453,0.8215604551105838,5.099170715489762e-06,0.2996527777777778,0
0.9602828201098208,0.6081778771982955,6.380649393718909e-06,0.2019965277777778,0
1.036270248062568,0.7011681654053337,7.376664486885765e-06,0.2855034722222222,0
0.8924032698656772,0.6068102011577733,1.874089479903854e-05,0.2405381944444444,1
1.146780980711605,0.7428139576049434,7.091033605398939e-06,0.2361979166666667,0
0.6776075827729982,0.4719901838256065,8.115127293358979e-06,0.1336805555555556,0
1.48738615406077,0.7809566497571865,7.090263446484066e-06,0.2282986111111111,0
0.4987407495714669,0.3794672534142951,1.845398940068748e-05,0.0771701388888888,0
0.7747828428684663,0.5725341221309657,1.668895099501973e-05,0.1717013888888889,1
1.883048229556909,0.7723641902148943,5.969500074686442e-06,0.3191840277777778,1
1.462866814255644,0.7113526222989643,1.094162424821428e-05,0.2912326388888889,1
0.9744049307938428,0.6240462428672323,1.028340479360987e-05,0.1525173611111111,1
1.758331187325499,0.9227831380096116,3.403805332511108e-06,0.3484375,0
1.809287169548747,0.7816914975978246,4.159358693187714e-06,0.2931423611111111,0
0.6034597240358014,0.4183034901952734,2.006298987170766e-05,0.2782118055555556,1
1.177762952371827,0.6395925732095987,1.143873465757625e-05,0.34921875,1
1.503776734163948,0.8068495676187184,4.192728794688428e-06,0.2881944444444444,1
0.2652944352668489,0.6626498674054727,4.662346212245705e-05,0.3046006944444444,1
0.2660803437159349,0.3859948404436165,3.867869401138606e-05,0.0449652777777777,1
1.461064640182654,0.7158642859173358,3.875576790332741e-06,0.2290798611111111,1
0.735239236744725,0.4268867673019293,1.298289967923769e-05,0.1272569444444444,0
1.464081382417215,0.7778709658483365,3.382163078165712e-06,0.2004340277777778,0
1.428664032058313,0.8311010114516659,1.033963626309538e-05,0.3526909722222222,1
2.050889869680454,0.9092770102516397,5.363513580322698e-06,0.4065972222222222,1
0.7258099602461046,0.4368799650062086,1.871947025410011e-05,0.3703125,1
0.7512835227890462,0.5845811154408193,9.477491607639162e-06,0.2068576388888889,0
2.059856937432815,0.9005984768758697,5.051780782537655e-06,0.4420138888888889,1
1.304825777324585,0.6737142169031879,4.808778120955876e-06,0.2227430555555556,0
1.234335143359024,0.5739482404219404,6.495465415893064e-06,0.1629340277777778,0
0.4891647979780237,0.4608753973945313,1.939767105891682e-05,0.1701388888888889,0
1.27181014495099,0.5631540851428045,6.508182078934362e-06,0.2330729166666667,1
1.853726812840219,0.7997773581913399,5.800302907301293e-06,0.3888888888888889,1
0.5821856053347582,0.6079639229857515,1.998270564916589e-05,0.190625,0
1.688478481050351,0.8459511776551819,2.897404793458409e-06,0.271875,1
0.7494399959822771,0.8294287103269269,1.210799929522442e-05,0.1753472222222222,0
0.496952280902253,0.4320902814699195,1.78852445458942e-05,0.0842013888888889,0
0.2848191843958602,0.4115490058584576,3.187351791460104e-05,0.0572048611111111,1
1.321851911579774,0.701455908162747,1.215872993846939e-05,0.3236979166666666,1
1.230661319471502,0.6944649769557554,1.107317120165607e-05,0.3811631944444445,1
1.105366970387486,0.7210813237949139,7.49317593647283e-06,0.2380208333333333,0
0.8981517185231774,0.6671558315845465,9.057036359092052e-06,0.16328125,1
0.7262973203864818,0.5863106717872464,9.678425336997024e-06,0.1704861111111111,0
1.2982788465935,0.7899837294631946,4.751979950433109e-06,0.2697916666666667,0
0.2591197986687435,0.355854556166445,2.163784724171766e-05,0.1951388888888889,0
1.3569495873229,0.719075383563088,7.934933275407113e-06,0.2105902777777778,1
0.5543206471928341,0.4429384347120124,1.547649809024196e-05,0.11875,0
0.7830308199764022,0.5935294102252743,1.317287898274261e-05,0.1881944444444444,0
1.56318901457726,0.7126653646255161,4.612755837293731e-06,0.2854166666666667,0
1.381269056383616,0.7781957965474431,1.138910717262043e-05,0.2833333333333333,1
1.621808027211811,0.8361585299385412,3.967130772661888e-06,0.2461805555555556,0
0.9578689148318786,0.5971620760259069,1.828350768671964e-05,0.18046875,1
1.45416248686955,0.5065060961818426,7.82859783629506e-06,0.2098090277777778,1
0.6435385550597666,0.5897580381785797,1.729176381407421e-05,0.2176215277777778,1
1.740347762106974,0.7913032438787789,8.485035203004473e-06,0.3511284722222222,1
1.580934761479838,0.7861614811598313,2.892276966481424e-06,0.2048611111111111,0
1.889681529940008,0.802016794216004,4.061229493834391e-06,0.3373263888888889,0
1.415273261491792,0.7612622290141619,4.8204980641855e-06,0.1813368055555556,0
0.9908239986979288,0.6707709027428644,1.025723644993169e-05,0.1678819444444444,1
1.518050807481593,0.7410488607485978,3.248400569138629e-06,0.2723090277777778,0
0.7980510287935737,0.5554908176655576,1.615233085501241e-05,0.2071180555555556,1
1.955345327280116,0.8643983183983109,5.509277164326804e-06,0.4206597222222222,1
1.378530955344185,0.7059145085908588,5.029567117896594e-06,0.2408854166666667,1
1.152009248660351,0.5799637657182686,6.998980032871592e-06,0.1493923611111111,1
0.9978564586057256,0.6891620621635283,7.031640351514898e-06,0.2095486111111111,0
1.006251677030977,0.540200455978882,1.713676974176601e-05,0.2657986111111111,1
1.251918879353184,0.7655972126641182,6.05123249570552e-06,0.3067708333333333,1
1.499217055176464,0.8486311618508305,4.699179012824831e-06,0.3017361111111111,0
0.7970596596751093,0.577655347248495,1.21514311479807e-05,0.1965277777777778,1
1.093580813356378,0.5625895846292694,3.218239239120449e-06,0.1261284722222222,0
0.5314310533888558,0.5645465711113841,1.073995004921024e-05,0.1984375,0
1.078435263269491,0.7183991066120876,7.466332986152897e-06,0.2652777777777778,0
1.306790380650346,0.758299851091269,6.491056656838743e-06,0.1792534722222222,1
0.2261882211450143,0.3991605094497772,3.755334464377142e-05,0.0383680555555555,1
0.9673758995093132,0.6315204460169854,1.809573418842517e-05,0.2412326388888889,1
1.34568955847488,0.7389647772332307,4.981023617330517e-06,0.2355034722222222,1
1.278304829693633,0.7331517508282197,1.063261546265765e-05,0.1883680555555556,1
1.323022417162453,0.5406651535430158,1.058370428914979e-05,0.2951388888888889,1
0.7637505228375566,0.5276695672690601,7.965205959662974e-06,0.0936631944444444,1
0.8541840879696254,0.5780400196998841,6.751532895692052e-06,0.2268229166666667,0
1.490858467253365,0.8096914218020611,3.024268488426388e-06,0.2629340277777778,0
1.486755782087973,0.8472115398637116,7.117345965982209e-06,0.2875,1
1.188504405028031,0.6909056811576058,6.377980815922459e-06,0.1859375,1
1.437797424488359,0.7892602752016187,6.749392687447877e-06,0.2105902777777778,1
1.286102395919146,0.7202470481923813,9.672625017223102e-06,0.1611111111111111,0
0.6076375733737219,0.5206587619423075,1.648900290313534e-05,0.3713541666666667,1
1.658146455175627,0.8419943870408935,3.552282580257077e-06,0.2491319444444444,0
0.3292004759456856,0.4531242515719758,3.827043502097421e-05,0.11015625,0
1.454599799849536,0.674719698636956,4.934254155817822e-06,0.2881076388888889,0
1.548355050573223,0.8027341839447194,2.213867876461787e-06,0.2555555555555555,0
1.534094780947423,0.7379743154897923,3.718564103605848e-06,0.2259548611111111,1
1.589685429540384,0.8133358357632711,4.226380823627385e-06,0.2549479166666667,0
1.333058673188703,0.7127171295616025,7.423978643832458e-06,0.1880208333333333,0
1.260743388891166,0.7141882969603184,8.195179197939941e-06,0.1719618055555556,0
0.6418404627380221,0.4908824232139639,1.26234501381081e-05,0.2276909722222222,0
1.167939317610889,0.6958722480183466,7.022476060980858e-06,0.1749131944444444,0
0.5046888896938775,0.3923577982422075,1.779439941497034e-05,0.1103298611111111,0
1.193594456052157,0.7351815879731608,6.681203888647659e-06,0.2603298611111111,0
1.619361080019077,0.6373193901485413,4.35352659928961e-06,0.2722222222222222,1
0.9699551245520316,0.6250767730288602,6.971446432308868e-06,0.2074652777777778,1
0.2523691379673612,0.3792648113041247,3.21131955392405e-05,0.0504340277777777,1
1.937445367861218,0.8580084516365112,5.782138624264588e-06,0.3963541666666667,1
1.343729988253932,0.6368101929484351,5.094382622185583e-06,0.2150173611111111,1
1.424908688940618,0.7114307923890152,1.770868935541265e-06,0.2095486111111111,0
0.8201446835419243,0.4648446097142531,9.291847195158891e-06,0.1453993055555556,0
0.9675684142029802,0.6447230561990382,5.806678319807798e-06,0.1381944444444445,0
1.635424740909742,0.8462392377425407,3.203830609076987e-06,0.2828993055555555,0
0.8891264124512721,0.6523019958251359,1.616932953873443e-05,0.0927083333333333,0
0.3209247348913103,0.4681371035901935,4.167890245430668e-05,0.1121527777777778,1
0.6208362710672034,0.6033840025402459,1.614844875158775e-05,0.1736111111111111,0
1.214396157791091,0.6927984536627614,7.707862768310546e-06,0.1732638888888889,1
0.9252083441971576,0.7626106852551195,8.26565947911579e-06,0.3112847222222222,1
1.690250471954341,0.8381454087860382,3.623941425351081e-06,0.3519097222222222,1
2.022017009205911,0.8882353621554411,4.371875762761581e-06,0.4099826388888889,0
0.7632813705276897,0.4012512252442875,1.270966138517449e-05,0.1131076388888889,0
0.703713742384715,0.56046050196196,1.195281261545166e-05,0.2841145833333333,0
1.537267362724776,0.8760379354491046,3.892487664897026e-06,0.315625,0
0.8688851512594197,0.6129092524926656,1.060952387607684e-05,0.3263020833333333,0
1.477272295470583,0.7875805645401603,7.564796618246793e-06,0.2394097222222222,1
0.7557948025968521,0.6242195435723058,1.141923634532901e-05,0.165625,1
1.770118636145009,0.7882242587022091,7.462572753648212e-06,0.3958333333333333,1
1.09532247677523,0.5443621418725998,6.270878583051917e-06,0.2061631944444444,1
1.74612984164896,0.704702226919594,4.948623861923229e-06,0.3181423611111111,0
1.95829592394112,0.8377714352519859,4.828850266188163e-06,0.51171875,1
0.3534904494586796,0.5700838969985222,4.879784309427422e-05,0.1171006944444444,1
0.4439884367227416,0.6190222333492046,3.342725312072604e-05,0.2926215277777778,1
1.473432026228868,0.8320611469794172,3.484692804420538e-06,0.2681423611111111,0
1.436437417102118,0.4834579532801143,8.089397785569617e-06,0.1730902777777778,1
1.138120719753751,0.6321985255552653,1.023984155761173e-05,0.1518229166666667,1
1.291826357002415,0.7497013024508168,7.51257372903545e-06,0.2285590277777778,0
1.655182615299217,0.686811507693953,5.659996893410432e-06,0.3138888888888889,0
1.825022211011973,0.7638889900098409,4.002964050629386e-06,0.4186631944444444,0
0.3312949810714708,0.4063263611250118,2.033030799315279e-05,0.0623263888888888,1
1.828540961553487,0.915513530674836,3.554542869313639e-06,0.3196180555555556,1
1.265743565895309,0.7365019816499472,6.449338246008227e-06,0.2121527777777778,0
1.115302523446962,0.6099619655069506,1.505645291139722e-05,0.3059027777777778,1
1.155036268925375,0.6161579169740079,1.648991651588685e-05,0.3080729166666666,1
1.573022999950912,0.8754202169665645,3.181482878999586e-06,0.2997395833333333,1
1.090423826326013,0.5408294398196679,6.649163339678475e-06,0.2274305555555556,0
1.208104923598095,0.5886624009891372,9.466245498759414e-06,0.2550347222222222,1
0.7770709577066709,0.4394526517804623,1.241534904948713e-05,0.1110243055555555,0
1.286741963177524,0.6540413249669017,7.303824988644077e-06,0.2506944444444444,1
0.5897782598554236,0.3874233862322546,1.640465861116541e-05,0.1012152777777778,0
0.5746411319654253,0.6603085379061187,1.350689459706423e-05,0.1828125,0
1.377436705109505,0.7797713696564468,7.42049687204917e-06,0.2271701388888889,1
1.837161868741638,0.8104650948295533,3.373508137932672e-06,0.3567708333333333,0
1.249363541168362,0.6717665567873511,9.301184379858328e-06,0.2255208333333333,1
1.019114846831721,0.6784562463301744,5.823872281621259e-06,0.2363715277777778,0
1.316373954230333,0.4668904958313523,8.446518351017716e-06,0.1607638888888889,1
1.984904731891263,0.8828144107366451,4.131359923138988e-06,0.3819444444444444,1
1.055959090259632,0.6440629772519263,8.384842131099846e-06,0.3436631944444444,0
1.451317999930181,0.7327528456599656,1.748322262910974e-06,0.2032986111111111,0
2.023459197325034,0.8495413808431777,4.761568437512183e-06,0.4949652777777778,1
1.789548901254059,0.8098831254330745,4.720017084786212e-06,0.3046875,1
1.376486194180118,0.7046182854153407,6.830704770233985e-06,0.1989583333333333,0
0.2156521161918983,0.6994700611547335,3.033288593200152e-05,0.1227430555555555,0
0.3184690367926062,0.4150950874849899,3.881645269265257e-05,0.0545138888888888,1
1.526893158564989,0.8216959958017727,4.847668544360154e-06,0.2721354166666667,0
1.454446572571581,0.7885972993625461,4.409336763484344e-06,0.2573784722222222,0
0.721972344034293,0.4114941837649281,1.686224457328235e-05,0.2029513888888889,1
0.0362882426908665,0.706309796414901,8.759515585758887e-05,0.2849826388888889,1
1.690566209371585,0.7728914573836567,3.944738882921012e-06,0.2733506944444444,0
1.693231252439591,0.9036139342285804,3.419915597492122e-06,0.2940972222222222,0
0.8497490483942863,0.5847731175475321,1.404430132852482e-05,0.1752604166666667,1
1.179746317484937,0.750361070537381,5.925703026162952e-06,0.2384548611111111,1
1.618591807124104,0.7217766727952293,6.924923290010448e-06,0.4707465277777778,1
0.63728245587091,0.6666942161721479,1.391643450331356e-05,0.16171875,0
0.7579230028864243,0.4573177851822405,1.206943646524751e-05,0.1290798611111111,0
1.170026933302148,0.6217374683309868,1.00583999162622e-05,0.1611979166666667,1
0.5061109613795267,0.4958220579985229,1.686061451518181e-05,0.1940972222222222,1
1.369249051414317,0.787104907047881,5.471402295557609e-06,0.246875,0
1.20449522463403,0.6823862817519376,8.792041654344016e-06,0.2432291666666667,0
0.4642480769246942,0.6267266988059245,1.589669221898192e-05,0.1144097222222222,0
0.9301956320564936,0.4743921143782967,1.51960387935892e-05,0.3280381944444444,1
1.558478288833205,0.8001048041354055,2.381635442135028e-06,0.2580729166666667,0
1.294521176984705,0.6842668877492292,3.673704409570523e-06,0.2008680555555556,0
0.915371642661785,0.6023500750874934,1.211507730175162e-05,0.2186631944444444,0
1.013981859071164,0.772029818542625,7.494931218995531e-06,0.2672743055555555,0
0.8386660593286612,0.6666664136833247,1.538154835553999e-05,0.1769965277777778,1
0.4168712231299777,0.4779819211355372,8.52423615773613e-06,0.19375,0
1.068228947383266,0.5939350703179067,5.313343030711514e-06,0.2479166666666667,1
1.408525314832616,0.7816087533700905,4.866188250192606e-06,0.2423611111111111,0
1.595508570100342,0.8251239764072222,1.862810670803038e-06,0.2427951388888889,0
1.002685390645702,0.6296963148471556,1.233362252607889e-05,0.1237847222222222,1
1.485097275473475,0.7720762210413677,6.257945895405986e-06,0.25390625,1
0.5755935750277268,0.6252164954074327,1.859404574878196e-05,0.1533854166666667,0
0.4244799953501373,0.4391790090062665,1.276021418902969e-05,0.0891493055555555,0
0.5972615795782146,0.7042377706383948,1.570066552303741e-05,0.1487847222222222,0
1.133814809105409,0.5400282709765871,1.113990181656656e-05,0.3240451388888889,1
0.7619475763466669,0.5823551086713594,1.363228477500662e-05,0.2368923611111111,0
1.812782488021282,0.8433641245882199,6.594190693043637e-06,0.3732638888888889,1
0.3477217036892288,0.4335442411492251,2.759722596017825e-05,0.1573784722222222,0
1.627096494013188,0.7607736601193555,9.467499033278348e-06,0.2918402777777778,0
1.966887489897292,0.7423235789528269,4.485680653495951e-06,0.3816840277777778,0
1.756425890789982,0.8894802992976164,3.384620719358233e-06,0.4237847222222222,1
0.5687591992513531,0.4183746432907042,1.421617130723582e-05,0.0796006944444444,1
1.481269496932153,0.6422724694220274,5.011831655481214e-06,0.2592881944444445,1
0.7655423599886275,0.4941012613541147,9.40493408946609e-06,0.1263020833333333,1
0.2806025470614384,0.4196447382634502,4.739496842086737e-05,0.0440972222222222,1
0.2519821330306585,0.3994858152947723,3.510555040982182e-05,0.0504340277777777,1
1.400281331631782,0.800081425117052,4.177438977230958e-06,0.2553819444444445,0
1.694111628896467,0.8592154879305737,4.041056057326774e-06,0.2909722222222222,0
1.221676172447465,0.6786842933127233,3.954277343862317e-06,0.1581597222222222,0
1.481702038898434,0.6644320178525502,3.380622570199201e-06,0.2336805555555556,1
0.8245509228351201,0.5855935091872784,1.094272419000263e-05,0.2350694444444444,0
0.9234962806298096,0.6143166018376441,6.631331935903459e-06,0.2022569444444444,0
1.632026951789771,0.86498468144277,3.49838834534025e-06,0.2984375,0
1.564861253829508,0.8335196753624843,1.671168223415651e-06,0.2321180555555556,0
0.5337149782574476,0.4979301756607031,1.117879578118893e-05,0.0914930555555555,0
1.240886576032497,0.6732401497207126,7.624347500908728e-06,0.1725694444444444,1
1.420900124208982,0.6208809600537577,8.233401189475522e-06,0.31171875,1
1.144520213295024,0.6885323267134746,7.482406564613374e-06,0.16171875,0
0.4306238751877675,0.540289911657778,3.058634959123282e-05,0.11328125,0
0.3876871943640194,0.6497598343122835,2.995866761891391e-05,0.1239583333333333,1
0.2994183979508969,0.8097967819114313,4.605124781708664e-05,0.1347222222222222,1
1.093339068469384,0.6413126249833907,5.737184498221545e-06,0.1941840277777778,0
1.576338747764128,0.7605726701962252,7.040562104781054e-06,0.3786458333333333,1
0.9054397341764706,0.6277380416757421,5.812285188825128e-06,0.2019965277777778,0
1.607915238320328,0.6922263138999111,8.377029026722445e-06,0.4058159722222222,1
1.08892064747933,0.6994007929253938,8.88241203380218e-06,0.1447916666666667,0
0.8902301105699305,0.4974829328740916,1.097921847013853e-05,0.15859375,0
0.2057474111590909,0.4290453619609642,2.268858099948224e-05,0.1247395833333333,0
1.460491724765073,0.8329495947959694,4.4366013344289e-06,0.2519097222222222,0
0.8237347020930603,0.6371205992027011,1.243683553258226e-05,0.1680555555555556,1
1.729333129176063,0.91141174311147,4.821439377372844e-06,0.3579861111111111,0
1.781202314620823,0.8913561860885302,3.231915565766428e-06,0.3006076388888889,0
1.104840878106196,0.7024354389129845,7.911008618035745e-06,0.1649305555555556,0
1.268099523316005,0.5887314260246911,6.126498450156645e-06,0.2200520833333333,1
1.798362832897269,0.8322903489859683,7.149560073076333e-06,0.4229166666666667,1
1.679496188284679,0.8594506631346956,4.317639174668489e-06,0.3514756944444444,1
0.5321763276921986,0.4238145062686377,1.857104215974988e-05,0.1184895833333333,1
1.084410068907052,0.659743616506572,9.45051551262093e-06,0.1385416666666667,0
1.259688429956251,0.6603026090953099,8.628098957328891e-06,0.2859375,1
2.024048367714936,0.8833213021773729,5.339885732637435e-06,0.4254340277777778,1
1.715028198279906,0.5793519459160255,5.364211513838673e-06,0.2816840277777778,0
1.940936282340021,0.8305089239060643,3.657683564437237e-06,0.36953125,1
1.40308127226281,0.8069442028503729,5.906413345437366e-06,0.2078125,1
2.07551379553011,0.8241166470596023,4.358679164423528e-06,0.3962673611111111,1
1.446042731155652,0.859980084398531,3.822377399040259e-06,0.3217881944444445,1
1.273539971209766,0.7003368670044644,7.885720429347072e-06,0.2776041666666667,0
0.8053749651611732,0.5116817018246335,1.570424957185136e-05,0.2435763888888889,1
1.364784513276603,0.7915319225606602,5.788749874786101e-06,0.3183159722222222,0
1.237803881426331,0.694016125512725,1.108639052459914e-05,0.2770833333333333,1
1.260465973110581,0.6281285082017838,4.07949343624348e-06,0.1592881944444444,0
1.490291019188003,0.8169486653660292,6.77637090990235e-06,0.2369791666666667,1
1.063972211157401,0.6971898555434667,8.343938666408095e-06,0.2078125,1
1.729429840707756,0.656007783967539,5.402872991555935e-06,0.4008680555555555,0
0.9824164461769886,0.5966814827579444,6.515625658572736e-06,0.1940972222222222,1
1.481079037928725,0.782915143335514,5.334541535828117e-06,0.25234375,0
1.542516693776216,0.7521504225527336,7.34085516928363e-06,0.4355034722222222,1
1.173103867500066,0.6965750066551832,9.024803665846029e-06,0.2381076388888889,1
0.7382635188093031,0.667075189048649,1.204909355574011e-05,0.1388888888888889,1
1.522461359737297,0.7786682426814227,4.962886618279195e-06,0.2441840277777778,1
1.147226623580228,0.6760109546341473,6.24545773799793e-06,0.1811631944444445,1
0.3368143643894673,0.4729854884380912,3.141935987437334e-05,0.2245659722222222,1
1.501651682371462,0.8316776868241409,3.520309225287608e-06,0.2535590277777778,0
1.243926077029637,0.8077457038256856,4.498325925738007e-06,0.2649305555555556,1
1.41122762282712,0.7623147391939591,4.847253460706859e-06,0.1953125,0
0.9091510961627832,0.619015930310813,6.00221468077171e-06,0.2048611111111111,0
0.8739219389066508,0.616902416849092,1.128773680018417e-05,0.22890625,0
0.906339392243808,0.7055986770388432,1.009104780060134e-05,0.3223090277777778,1
1.51765839002135,0.5637056497430246,5.83662309264054e-06,0.2346354166666667,0
1.234825469760586,0.4719547492491415,1.145261407862036e-05,0.2529513888888889,1
1.229964270040645,0.6640505001336479,5.537559967852321e-06,0.2796875,1
0.897438576216901,0.6524140718106108,1.286585720112306e-05,0.1006944444444444,0
1.289190273539949,0.7453311354132119,5.340280489037048e-06,0.2298611111111111,0
0.6893639289608866,0.5217203917695116,1.502952975596209e-05,0.1490451388888889,1
1.492590889633121,0.7900889928335483,4.249209189515814e-06,0.2376736111111111,0
1.445637375394146,0.8264355513797111,6.261571734166594e-06,0.2880208333333333,0
1.13497681275604,0.6987848763791622,1.497568550262988e-05,0.2411458333333333,1
0.8853249114823736,0.5284938569003629,1.805444839339413e-05,0.2006944444444445,1
1.307662451088768,0.8085951673751325,6.551445324500354e-06,0.2769965277777778,1
1.980035588051241,0.7503449412488234,4.227494729453781e-06,0.3753472222222222,0
1.739906496767978,0.7079095323199343,4.738332729814803e-06,0.2615451388888889,1
1.829156566143658,0.825509687339205,4.109339175609713e-06,0.3295138888888889,0
0.5225734905127633,0.4560599847624479,2.233511181127104e-05,0.1952256944444444,1
1.548210816599555,0.7364951797130103,5.53593893908304e-06,0.3222222222222222,0
1.516417815328946,0.7910464173639253,3.48589872051171e-06,0.19296875,0
0.7467350415366789,0.5402251263820247,1.038985585573906e-05,0.2204861111111111,1
1.136398785515351,0.7112739051667436,6.78298441219519e-06,0.2126736111111111,1
1.433049891498583,0.8211115831564366,1.069194666372855e-05,0.2964409722222222,1
0.6152325775694762,0.5868224090285942,1.436283428275455e-05,0.1428819444444444,1
1.149586823791288,0.6801020493705213,6.500978394609056e-06,0.2214409722222222,0
1.43314988656182,0.8150992461584361,5.042793398022624e-06,0.2774305555555556,0
1.496426177319154,0.7691221731216198,7.253769893381833e-06,0.3743055555555556,1
0.614138028916496,0.464976079228285,1.659709262390817e-05,0.1824652777777778,0
1.482898752935478,0.706544610335756,5.418965675707198e-06,0.1948784722222222,1
1.127129800027179,0.7058789254795917,5.146022162621964e-06,0.2408854166666667,1
1.395685502548394,0.6126446961995807,5.40985805220227e-06,0.21953125,1
1.519854112640895,0.7279098353180747,3.212783260941293e-06,0.2069444444444444,0
1.993726316661246,0.8785792340974811,5.0175251823299e-06,0.4869791666666667,1
1.253985725829235,0.6410682989718416,6.304657703048871e-06,0.3071180555555555,1
1.951970649457481,0.8210655105787441,3.652670768199965e-06,0.4589409722222222,0
0.369309053452229,0.3719476176199821,1.894487795513188e-05,0.0870659722222222,0
1.457074812760948,0.821620471431942,4.979384278213721e-06,0.2606770833333333,0
1.140232875387845,0.6810307382775793,8.108955314300366e-06,0.3467881944444444,1
0.97062601736614,0.6292949795992223,9.891075309417725e-06,0.1828125,1
1.251439237198161,0.7589576388478325,4.682917337731528e-06,0.23203125,1
1.216917821470795,0.6593761685699304,5.476341474186598e-06,0.2109375,0
1.6136234179278,0.8571284441938066,4.905383209118409e-06,0.2842013888888889,1
1.216985088087126,0.6672135958523481,6.249726696582939e-06,0.1763888888888889,1
0.396625093078004,0.5617546170613167,2.848332590688569e-05,0.16640625,1
2.022209397560234,0.8886135226609188,4.6528507985109e-06,0.4407986111111111,1
1.294832302384659,0.7499385437187283,8.53041218971977e-06,0.1673611111111111,1
0.810874254597283,0.4469496194769481,1.117281372368999e-05,0.1564236111111111,0
1.592951656855304,0.7679449975047505,2.760819561551645e-06,0.2200520833333333,0
1.225203602372455,0.7896731664319748,5.535556008099296e-06,0.2274305555555556,0
0.8953393170719122,0.6587085344615422,8.071033988895846e-06,0.2182291666666667,1
1.443947745161772,0.5418550789361474,4.670953281522087e-06,0.2595486111111111,1
1.114864513093417,0.6127866550689,1.657447060315636e-05,0.2654513888888889,1
1.564384946998384,0.8141268770242783,6.025530071104679e-06,0.2638888888888889,1
0.7656047514025247,0.58649205199091,1.144476272755917e-05,0.1982638888888889,1
1.313508918708817,0.6718354173451371,3.894366711033749e-06,0.1762152777777778,0
0.6535988655103387,0.5627886465951805,1.384961400084448e-05,0.2149305555555556,0
1.385022742755094,0.7326881650234954,6.875773678198704e-06,0.2234375,0
1.026660958795378,0.5742043982285967,5.261026686032634e-06,0.1572048611111111,0
1.290976662014212,0.8331465813303024,5.248155346204465e-06,0.2833333333333333,0
1.974928964106647,0.9035336067929114,2.954104131444618e-06,0.4730902777777778,1
0.9859657338316298,0.563697296502455,8.049895757889062e-06,0.1803819444444444,1
1.590072251002574,0.8413698549431136,4.188554084907782e-06,0.2708333333333333,0
0.4849498886126066,0.5235943537540566,1.383986518590157e-05,0.1931423611111111,0
1.752587367611888,0.6656767693778293,4.77574470294044e-06,0.3967881944444445,0
1.720020688680055,0.8521872672243688,4.119964880010048e-06,0.2770833333333333,0
1.810500146238709,0.909489854733733,5.495438653119664e-06,0.3701388888888889,0
1.722319896629879,0.9257165713143094,4.21526711080429e-06,0.3544270833333333,1
1.270849585867696,0.6023723331868596,1.383101420744595e-05,0.2706597222222222,1
0.993988345783804,0.6478849318437053,5.969199706151318e-06,0.1872395833333333,0
1.984447592388471,0.8366215146663294,3.526751620237033e-06,0.4633680555555555,0
1.15390115390798,0.5708424161140245,4.284541829713897e-06,0.1499131944444445,0
0.607669168886048,0.6007687393806551,2.626672100223342e-05,0.1550347222222222,1
1.578502602766991,0.8268113036719512,3.827250628163092e-06,0.24765625,1
1.552484923287061,0.8087855629622693,4.128752121203474e-06,0.3211805555555556,1
0.7121099300887679,0.4829784168094222,1.019562179075612e-05,0.1969618055555556,0
1.602269916371595,0.8493103695807148,4.433558847858277e-06,0.2873263888888889,0
1.605334590764439,0.7098978313357355,3.428574383094948e-06,0.2772569444444444,1
1.388513190838308,0.719418156129629,4.745895971268486e-06,0.2072916666666667,1
1.520166242110595,0.82175250548832,6.418666203526088e-06,0.2734375,1
1.04018196433488,0.565654241505924,3.008094481978571e-06,0.1375,0
1.334576703501441,0.6728193092035993,2.110600045762162e-06,0.1868923611111111,0
0.9688662339379548,0.519144130866232,7.523159872479725e-06,0.18671875,0
0.8797446347282638,0.5876589696568804,1.259489561141494e-05,0.2375,0
1.551123691857959,0.8574253466978314,3.841481280200493e-06,0.2875,0
1.677177057991739,0.8614265760674538,3.241770180523176e-06,0.2818576388888889,1
1.59022852334877,0.8643355742724885,5.352340011418698e-06,0.3169270833333334,0
0.3404613662991763,0.425204358685227,2.061933026999299e-05,0.0364583333333333,1
1.156416827399665,0.5875919341244773,9.969953684387814e-06,0.2322916666666667,0
1.245971074249198,0.5862200990067347,3.966748433864748e-06,0.1696180555555556,0
1.187627815451968,0.5892938107174455,3.077836582163016e-06,0.1585069444444444,0
1.184843149815076,0.7246195037720868,6.093467607998001e-06,0.2348090277777778,1
1.052281496279723,0.6554126990599914,1.249626539104938e-05,0.13359375,0
1.185072641032256,0.6584892756522951,5.565976662309587e-06,0.2628472222222222,1
1.736364445426675,0.7275129025035951,4.746290198393185e-06,0.2967881944444444,0
1.547495991673231,0.7863418715111223,2.811557412755607e-06,0.2239583333333333,0
0.6945891314143958,0.874779154976422,1.457970888135041e-05,0.2576388888888889,1
1.438149037413011,0.7781166353558846,2.803795761544431e-06,0.2305555555555556,0
0.4090892067313598,0.3559528236551297,1.487395266557953e-05,0.1256076388888889,0
0.6821102855970331,0.6192751912870584,1.57422209255666e-05,0.2303819444444444,0
1.614533167720367,0.8815817388326616,6.05884489764223e-06,0.32578125,1
0.281488055147725,0.7524249361616491,5.385634953527439e-05,0.1133680555555556,0
1.260422854801627,0.740010089850151,5.356746084563838e-06,0.3230902777777778,0
1.282004536009179,0.6300870843066219,1.127366459918763e-05,0.3107638888888889,1
1.557482856061322,0.6418713676123002,5.133538413069555e-06,0.2255208333333333,1
1.124939996011052,0.6174321475000212,4.502192949857268e-06,0.2026041666666667,1
1.277873285493654,0.6497541792940283,2.083305712644313e-06,0.1763888888888889,0
1.510664445291636,0.876061987037436,3.439552291249904e-06,0.2616319444444444,0
1.728668824908898,0.7920030941416162,7.690746041661297e-06,0.3621527777777778,1
1.392722406700479,0.7614056750012044,5.061142018493915e-06,0.1970486111111111,0
1.913217138820576,0.8404975582509188,5.427776151272116e-06,0.4837673611111111,1
0.5157871071060832,0.3491155411443735,1.645088154619928e-05,0.1213541666666667,0
1.343574730153456,0.7993171108663617,4.124722022427946e-06,0.290625,0
1.139873422685599,0.6900152058546684,6.849944734688753e-06,0.1614583333333333,0
1.412786235106821,0.7982449017729657,6.358463357835864e-06,0.29375,0
1.444071599912884,0.6695013404702973,5.114612191391398e-06,0.2865451388888889,0
1.582000623004872,0.8737951120370593,6.086787757431852e-06,0.2950520833333333,1
0.6836049834644959,0.6285359349456738,1.277372574610233e-05,0.2134548611111111,0
1.509819665220154,0.8145623944189088,2.424110210595366e-06,0.2590277777777778,0
1.145585692630934,0.5716192565023912,8.54715599715278e-06,0.1692708333333333,0
1.718194936974886,0.9098623572292586,5.496487783521346e-06,0.3399305555555556,1
1.36087024162828,0.8399220231144833,4.929917564411104e-06,0.2394965277777778,1
0.8040903242117273,0.6924619837063278,1.748952607962681e-05,0.2477430555555556,1
1.041300445798259,0.5897874702979635,1.089968766269208e-05,0.2405381944444444,0
0.4408258352072107,0.3870802368306152,1.749648886782708e-05,0.0408854166666666,1
0.5176775824641325,0.5278845179958136,1.855876703928063e-05,0.1998263888888889,1
1.57858979699249,0.7021372634457199,3.03139419562341e-06,0.2651041666666666,1
1.52278508739944,0.7988731344854856,4.344789172695698e-06,0.2644097222222222,0
1.471122660528073,0.711284755002321,5.579115181593585e-06,0.2706597222222222,1
1.305599597876062,0.6610349275756552,4.896728212037447e-06,0.2975694444444444,1
1.224742720286682,0.6978235018636473,8.33182633325959e-06,0.2247395833333333,1
0.2932342184543774,0.552578162558595,3.738653012258909e-05,0.1185763888888889,0
1.474749588351578,0.7975673884654827,3.422443052751296e-06,0.2834201388888889,0
1.518362700645764,0.8313453698356653,5.161206751421972e-06,0.2814236111111111,0
1.320606480145134,0.7818542135305326,6.265467877561791e-06,0.1942708333333333,1
1.552078907824708,0.7269801911462247,9.40489976927024e-06,0.3534722222222222,1
1.548348495959095,0.8772845395602591,3.820925281407412e-06,0.28984375,1
0.9522489521157969,0.5274319632246134,1.587907691824265e-05,0.2723958333333333,1
0.3781738148332023,0.5645942867736887,2.953602431707816e-05,0.1052951388888889,1
0.3899192117115207,0.4297550509789727,1.596513396613372e-05,0.0810763888888888,1
1.815267967477528,0.9193891652203008,3.186596993800632e-06,0.3184895833333333,0
0.4271439869089768,0.5950785293479376,2.845284500941342e-05,0.0896701388888888,0
0.3914530062349597,0.4919910105316376,4.03299154513465e-05,0.1176215277777778,1
1.374382730248294,0.7808195076605122,3.349230363487079e-06,0.2478298611111111,0
1.196411128859035,0.7002930992671873,7.589787489501771e-06,0.1763020833333333,1
1.274566267335625,0.6455617779695723,5.012381384286538e-06,0.2220486111111111,0
1.176530809357047,0.7587040279826708,6.302043139069525e-06,0.2769097222222222,0
0.6261467053173768,0.6904279763573783,2.688702132337247e-05,0.1943576388888889,1
0.7358865684008123,0.8056604082823573,1.229814538504166e-05,0.1652777777777778,0
1.688884054698425,0.8272472271902835,3.095702104498217e-06,0.3090277777777778,0
1.484953109338172,0.8459604352173831,3.282521079814539e-06,0.2721354166666667,1
1.524402231694225,0.7899013451151421,3.62753629348423e-06,0.2711805555555555,0
0.7832722282303408,0.5247387335502594,1.97716415600973e-05,0.2305555555555556,1
1.52552895436301,0.6904601718471475,4.903553492416048e-06,0.2118055555555556,1
0.7611726357770011,0.616199156685802,1.415075536789943e-05,0.2497395833333333,0
1.438070050011492,0.7463765365473272,4.728943080030452e-06,0.2434027777777778,1
1.278579741937103,0.7339203172747668,5.043970331561194e-06,0.19921875,0
1.547326317390056,0.8591813200872496,3.724746578456418e-06,0.2873263888888889,0
1.24772741402832,0.781114269154544,8.31479157252897e-06,0.2306423611111111,0
1.381978780385863,0.777603218508603,4.666988743859583e-06,0.2524305555555555,1
1.40088888619109,0.7315857816768198,5.611640469415387e-06,0.2349826388888889,0
1.13721785012906,0.69513104628616,1.044936081196921e-05,0.1438368055555556,0
1.287989390952941,0.6913543749352308,6.422107146465667e-06,0.1928819444444445,0
1.167622352411196,0.7263676408685419,8.495710857011563e-06,0.2267361111111111,0
1.221833708265142,0.7192609645454185,1.049346528329929e-05,0.1828125,1
1.04959223551988,0.5427345912541567,1.012250677256273e-05,0.3073784722222222,1
0.1629801459457167,0.3934397031293049,3.765853671261928e-05,0.0567708333333333,1
0.9806505626959776,0.7732571543785544,7.240751868953817e-06,0.2725694444444444,1
0.9660686460430786,0.4902234944780869,1.062073258967444e-05,0.1526909722222222,0
1.665826042261636,0.8439787563807759,4.343702289254204e-06,0.2859375,1
1.794258406669795,0.6164710696885468,5.779948188977035e-06,0.3418402777777778,0
0.9253901383485832,0.4329219044527775,1.380625476169165e-05,0.2041666666666667,1
0.5998276411458442,0.5323537119933395,6.811173698329596e-06,0.0936631944444444,0
1.599356996104447,0.8587091802640734,6.897388021793749e-06,0.2911458333333333,0
1.295576676160686,0.7070155227430936,7.45766509267469e-06,0.3646701388888889,1
0.8166866208931349,0.6177058550492408,1.030132097149739e-05,0.1944444444444444,1
1.062434887929457,0.6255132806881997,6.152610689775696e-06,0.18203125,0
1.813944975854958,0.8737140336708521,3.096268700188056e-06,0.3356770833333333,1
0.5406001038407965,0.6151429369914622,2.513869532999881e-05,0.134375,1
1.525900269520253,0.6458495444161461,4.970656151442117e-06,0.2654513888888889,1
1.70856488300797,0.92757452703947,4.280074967503746e-06,0.3505208333333333,1
1.100667090367595,0.6958999868789977,2.727666323781004e-06,0.1961805555555556,0
0.9719079498008198,0.6116445824606354,1.065249519887171e-05,0.1802951388888889,0
0.943006454346938,0.5623261912577846,1.415447360293537e-05,0.2950520833333333,1
1.10465476306205,0.5357804612630866,6.792011892933845e-06,0.153125,1
1.284003631689569,0.7552814843464085,7.184744237595493e-06,0.1815972222222222,1
0.5314324908212735,0.3599935003528996,1.983760143239914e-05,0.0934027777777777,0
0.2862358754078884,0.4824427398105791,1.827536368982938e-05,0.1346354166666667,1
0.9984787044565436,0.5748356692911799,8.192536763637087e-06,0.1561631944444444,0
0.779994507631657,0.4063326159746958,1.053265118121262e-05,0.1196180555555556,0
1.485580521571338,0.8537318549076733,3.388826398782943e-06,0.2876736111111111,1
0.6491602302671972,0.6495919344587597,1.674070796441586e-05,0.1285590277777778,1
1.666788344994231,0.8136973836136903,2.889062916295441e-06,0.2628472222222222,0
1.558953020263827,0.7908728385973328,2.815963095481961e-06,0.2296875,0
1.472718430095823,0.8174940890891927,6.431709218504295e-06,0.3032986111111111,0
1.568576761510048,0.7797302621926347,2.773398275955163e-06,0.2091145833333333,0
1.261280491647486,0.6206016291227845,1.127278933501548e-05,0.4366319444444444,1
1.442154624632837,0.702742933804588,6.323689383788914e-06,0.2618923611111111,1
1.295607395795833,0.7050197468378867,8.107140626017537e-06,0.1912326388888889,0
1.873950753097436,0.8237583869677021,5.527033839252637e-06,0.3950520833333334,1
1.062235764882714,0.5924214365354347,7.249801653462388e-06,0.1703125,0
1.304200594503414,0.6887005026860783,6.280300938981803e-06,0.2279513888888889,1
1.416787535855115,0.6909746638539793,6.613192455249875e-06,0.2571180555555556,1
0.9560672474894196,0.517518174229519,8.867486895927117e-06,0.2245659722222222,0
0.7929133857019813,0.6385339869034757,1.058334129253121e-05,0.21953125,0
1.551847056151009,0.7347848978677671,4.471928391632509e-06,0.3094618055555556,1
1.391924507214623,0.7316194208696217,7.679326952015128e-06,0.2078993055555556,1
1.639043351461611,0.7306154072106302,7.892857759392037e-06,0.3940972222222222,1
1.254099544814254,0.6866594814387441,5.968608502755713e-06,0.1645833333333333,0
1.173545284067993,0.6969352171532299,1.156516538446871e-05,0.1621527777777778,1
0.3092631846973701,0.4452157862345797,1.897389076460511e-05,0.203125,0
1.390423431608111,0.6382865995942358,9.049688596039788e-06,0.2139756944444444,1
0.4017029663472385,0.4428300873035974,2.165008180726004e-05,0.1925347222222222,1
0.4991509681934416,0.5231190420871227,2.429634319285038e-05,0.1586805555555555,1
1.332804665441842,0.6392174663007943,4.252453748055349e-06,0.1671875,0
1.862192198766986,0.8355922568705612,4.657835694926355e-06,0.4051215277777778,1
1.272393761740226,0.7407838155308398,9.468000380874294e-06,0.1925347222222222,1
1.507150831343164,0.7933081550069802,2.81945107451889e-06,0.2315104166666667,0
0.0432105475675901,0.7570966196965903,6.490771787608467e-05,0.1277777777777778,0
1.736299560069763,0.709239455644544,5.348628783554489e-06,0.3016493055555556,1
1.063730925305815,0.6302395760305951,6.630890872630759e-06,0.2154513888888889,1
1.909904561257038,0.8436248188854083,4.615271490539349e-06,0.3834201388888889,0
0.7234485252423768,0.6225389976041543,1.502779197570343e-05,0.1149305555555555,0
0.9507473602272122,0.6684017897204125,5.987671044546103e-06,0.2076388888888889,0
1.266942703598646,0.7528853498570784,8.282636194899614e-06,0.2668402777777778,1
1.188921805579242,0.6280346499993339,1.545811843989028e-05,0.2099826388888889,1
1.111870282262765,0.6559091595710952,6.355193617737196e-06,0.2422743055555556,0
0.471704211600033,0.3649685781434169,1.420360042376324e-05,0.0930555555555555,0
1.76526595014872,0.899580184750803,3.595767384763257e-06,0.29296875,1
1.307226754103038,0.6819817635464974,1.019117436562472e-05,0.3613715277777778,1
1.426516704117495,0.6618364146682921,7.118667202902378e-06,0.2731770833333333,1
0.8498555907681679,0.5947115762259689,8.027705070633721e-06,0.0917534722222222,0
0.6166562126677647,0.6311182813820451,1.919985311024803e-05,0.1091145833333333,1
0.4702924040340747,0.5219112162002135,1.485147451869762e-05,0.3365451388888889,0
0.5854367190551025,0.5565899323729907,9.212748579173217e-06,0.1171006944444444,0
1.006401691087027,0.6724498930444659,7.45600565228686e-06,0.2246527777777778,1
1.689024085732653,0.8635000276727226,3.184049141760555e-06,0.2890625,0
0.9700752704149206,0.5254993198810155,1.892098391404877e-05,0.2627604166666667,1
1.50217299902469,0.8269168020512437,4.618069329459986e-06,0.2354166666666667,0
1.75203825956723,0.9098435138103004,3.709237561024065e-06,0.3277777777777778,1
0.5108998048967314,0.3804340800888629,2.531144915213881e-05,0.1928819444444445,1
1.895494218503933,0.8060285895975524,6.155979269500054e-06,0.4740451388888889,1
1.32407804890571,0.6853256074716507,8.511627631631407e-06,0.1982638888888889,0
1.712799095107888,0.8708349945455452,3.678256098853261e-06,0.2973090277777778,0
1.049802114531336,0.7204293843496734,7.82195428005748e-06,0.1792534722222222,1
1.544808701729687,0.7922044148597144,5.864651570404801e-06,0.2340277777777778,1
0.4494148592849976,0.5743294034791815,4.536723888940645e-05,0.1026909722222222,1
0.8908585901868057,0.5216692785476575,1.007971540642626e-05,0.1500868055555556,0
1.245943965387232,0.7115744771907938,7.61708162187868e-06,0.2089409722222222,0
0.8273625565459228,0.4545297167983476,9.34168594853408e-06,0.1693576388888889,0
1.846176608639925,0.8806370792780741,3.270392358693194e-06,0.3181423611111111,0
1.499914001452773,0.6798524844960152,7.005665414567879e-06,0.2532986111111111,1
0.638284869108729,0.5637590250580691,2.260640913914891e-05,0.1899305555555555,1
1.260043505243775,0.6938130468796428,8.834067866731858e-06,0.2295138888888889,1
0.9679773781094482,0.6730626489710871,2.109136294487224e-05,0.2050347222222222,1
0.8400233686760201,0.4790286751665687,1.057708161917401e-05,0.1331597222222222,0
1.354444031261233,0.747257502674083,5.317931795881994e-06,0.3566840277777778,1
0.5978067581632153,0.6370861224250052,1.235806788407851e-05,0.1712673611111111,0
1.191599805695646,0.6480712624200905,7.410261827317121e-06,0.1670138888888889,0
0.7457305020709175,0.5192395906528833,1.912849552283133e-05,0.18984375,1
0.3926045125346678,0.5166362720412028,1.652920119523438e-05,0.0775173611111111,1
0.8982349397457063,0.6404737562293844,7.828646018087007e-06,0.2348958333333333,0
1.814389202051324,0.8531569399427245,4.770148465480857e-06,0.3018229166666667,0
1.387417916346217,0.6535411716767393,4.43061130651289e-06,0.2230902777777778,1
1.357727525072162,0.7804854038135091,6.046942304366322e-06,0.2618923611111111,0
0.2218042544346205,0.4778197883597635,1.96165061972477e-05,0.15390625,1
1.584877438393877,0.7105085213368426,4.363524617370181e-06,0.2841145833333333,1
1.347274065095118,0.6588195208966899,4.471178732758016e-06,0.2551215277777778,0
0.8027975954634071,0.5851581755461872,1.235901530788123e-05,0.1828125,0
0.5239208642672417,0.4383155842974595,1.517860763186342e-05,0.0880208333333333,1
1.945781443164883,0.7900879986289172,5.032359488976631e-06,0.4115451388888889,1
1.444567200689821,0.748965470887876,4.537708921593142e-06,0.2154513888888889,1
1.105348933563539,0.6780365730569445,5.434932782858131e-06,0.2138888888888889,0
1.51882774604042,0.8267345046879934,3.812692161713013e-06,0.2808159722222222,0
0.3775634700512915,0.5369230750641718,3.49953019821424e-05,0.1519965277777778,1
1.528584656461566,0.6209602035242409,3.974777154214162e-06,0.2623263888888889,1
1.462293351503214,0.8093842050114985,4.22692360274095e-06,0.2081597222222222,1
0.7132975234636522,0.5410001302552028,7.949274541595718e-06,0.1236111111111111,0
1.860006007607387,0.8465556698960277,4.002391658106987e-06,0.4559027777777778,1
1.257652815895085,0.4719745469994293,7.553518903891498e-06,0.1822916666666667,0
1.548995470416292,0.8403123585645123,3.993527353388362e-06,0.3030381944444445,1
1.020408851631818,0.5228007495686382,7.859095110814898e-06,0.1864583333333333,0
1.471332380870727,0.8272160555556582,3.713045547771024e-06,0.2680555555555555,0
1.875584565469289,0.8789169642847428,3.490105439511765e-06,0.3322048611111111,0
1.687295761463069,0.8511376894882602,2.816054492993941e-06,0.2766493055555556,1
1.142763478583909,0.7633197653730207,7.184749673831027e-06,0.3099826388888889,1
1.474412568951533,0.7539101739903384,4.485808509963603e-06,0.2152777777777778,0
1.501371984158346,0.7425880216882814,5.324728264270786e-06,0.2636284722222222,0
1.205717074640963,0.7185419793378263,9.339588513083528e-06,0.2358506944444445,1
1.499870809566601,0.8095635604357072,4.675474872015799e-06,0.2209201388888889,0
0.8728222091249593,0.5639682669007697,8.150485380459548e-06,0.1230902777777778,1
0.4475294333743201,0.5656315956032766,1.5499035112038e-05,0.1879340277777778,0
0.916243907355654,0.5138258847281444,9.613111489250958e-06,0.1253472222222222,0
1.587140429198937,0.8556504986898756,3.420055748798603e-06,0.3021701388888889,0
0.2715890530281048,0.4401044921857751,3.675889416277127e-05,0.1394097222222222,1
0.5674539071453507,0.6202447430196175,1.828405373782436e-05,0.115625,1
1.926756372202672,0.839814603964443,4.576663291943141e-06,0.3907986111111111,1
1.381186163161916,0.6754154890938754,5.988361633339403e-06,0.2815104166666667,1
1.102577597536355,0.6873558863926237,8.211968216461177e-06,0.2283854166666667,0
1.317678730986139,0.763143886622162,8.00152413801048e-06,0.2092881944444444,1
1.639676709216513,0.8276888099764756,5.293715452265184e-06,0.2952256944444445,1
1.560113808592031,0.8321558114611659,3.424271450998217e-06,0.2614583333333333,0
0.388426668464408,0.5663147971439582,8.083257871105226e-06,0.1203993055555556,0
0.7128058260025182,0.6927131882997034,1.100101868342259e-05,0.1379340277777778,1
1.727011068708018,0.5823433367524979,7.031411055091874e-06,0.2514756944444445,1
0.7770597031889973,0.6887023225200963,1.213593003248946e-05,0.1403645833333333,1
1.259253619233608,0.7190475525132466,1.031537781993709e-05,0.1868055555555556,1
1.50637148406891,0.803959158010576,3.750083196024013e-06,0.3970486111111111,1
1.503463025917002,0.7992660691032046,4.400082125592914e-06,0.2180555555555556,0
1.918054103770776,0.8276136475909676,6.976284502374579e-06,0.3633680555555556,1
1.70077313722087,0.8233160170453228,9.058051306261425e-06,0.3302951388888889,0
1.245560446908823,0.7205430596636517,8.440336087423285e-06,0.2012152777777778,1
1.431465045920874,0.6592689862152322,6.998061620882296e-06,0.2403645833333333,1
1.358380854739279,0.6165960174539709,1.227218105186312e-05,0.3592881944444444,1
1.433840310062069,0.7749464540535499,5.380278317757132e-06,0.2646701388888889,0
1.397372281455354,0.7168581669568764,6.507936013966948e-06,0.3108506944444445,0
1.465755027266397,0.7712547497639732,5.007201442771768e-06,0.1962673611111111,0
0.6950394737904345,0.5146791490751697,1.076136835023249e-05,0.1640625,1
0.8413018480166307,0.6147692409182517,1.307465639623548e-05,0.2269097222222222,0
0.660412553585508,0.5632097324877136,1.37419441968835e-05,0.2316840277777778,0
0.7613581470945403,0.6771384301721823,9.858821419876707e-06,0.1282118055555556,1
0.7818226768646127,0.5933246312697215,9.3520953439615e-06,0.1734375,0
0.9845353982800208,0.598758664725519,6.979927580247395e-06,0.1862847222222222,1
1.611033770268147,0.8521263775323266,3.943275866639022e-06,0.2809895833333333,0
1.354911591388846,0.7186057044358243,7.646639090916855e-06,0.2010416666666667,1
1.630382271714919,0.8792687134395726,5.72452118516756e-06,0.2877604166666667,1
0.5131106161185192,0.5205085733010714,2.704508064988064e-05,0.2362847222222222,1
1.231674800182418,0.7395539647620862,6.587078674550413e-06,0.27109375,0
1.325866641378127,0.7465065224936851,6.028758000050426e-06,0.1595486111111111,0
1.566796766275656,0.8761554315359583,3.413248985109681e-06,0.2710069444444445,1
0.94662617173338,0.5350864638601368,5.629937334082588e-06,0.1267361111111111,0
1.956124953158149,0.8517577724260993,5.49664661149956e-06,0.4494791666666667,1
1.328163512086425,0.6896218979224173,3.556508047362652e-06,0.2079861111111111,0
1.625282598370008,0.8289010496239881,1.677201165644272e-06,0.2261284722222222,0
0.3686988466080367,0.4139733110951844,3.40462293758162e-05,0.0464409722222222,1
1.126737013752768,0.680330020751089,1.019733424372897e-05,0.1454861111111111,0
1.376983351770497,0.6309552217367445,9.128058362281933e-06,0.228125,1
1.268309966513652,0.7220491532820338,2.542214910918573e-06,0.2235243055555556,0
1.373451369026714,0.6947805788352528,3.627236003391061e-06,0.1845486111111111,0
1.371621277729672,0.7279963068795051,4.506549279983769e-06,0.1953993055555556,0
1.217941529894616,0.769413225928754,6.213338126307011e-06,0.25546875,1
0.6272568459174288,0.5097646026698022,1.833122618972978e-05,0.2305555555555556,0
1.395175467175529,0.6031275450731223,5.544883112048016e-06,0.2347222222222222,1
0.357534848507729,0.6743270780598127,4.341616600817172e-05,0.0977430555555555,1
1.005490191840616,0.4569556386464006,5.432831503174526e-06,0.2297743055555556,1
1.381764737152769,0.788549750986912,7.522843887133171e-06,0.2212673611111111,1
1.465184058132954,0.7813129304020103,4.054669478113813e-06,0.2233506944444444,1
0.8761171208309017,0.640105847940171,1.123621843495493e-05,0.1657118055555556,1
1.486952475982893,0.7448347930339804,1.910510926427655e-06,0.1763020833333333,0
1.338468632950081,0.8207427116923387,5.071001512964891e-06,0.2650173611111111,0
1.476281453454601,0.7907889722969044,4.584447983760313e-06,0.1984375,0
1.365627261546704,0.7226989638318254,6.8406161972381e-06,0.4136284722222222,1
1.098249019600365,0.487662080216782,2.636008371819519e-06,0.1222222222222222,0
0.5494299031897633,0.3903225288757444,2.340759768783246e-05,0.2524305555555555,1
1.636397326175577,0.5770617152269838,7.084117173038742e-06,0.2794270833333333,1
0.7185569723025559,0.5996101560230183,8.449574132249177e-06,0.13984375,0
1.065890091732062,0.6303918586667848,1.16525013910406e-05,0.1234375,1
1.388676427875037,0.7579077133073732,9.550658810451708e-06,0.4172743055555556,1
1.552254959205036,0.7199758866545005,7.571393538468953e-06,0.3551215277777778,1
1.146807227960019,0.6615230600734749,9.455976863399784e-06,0.14921875,0
1.082643798989141,0.6237481056342986,8.855820539805118e-06,0.2504340277777778,0
1.050978745437507,0.6979513845380632,6.011208558515235e-06,0.2796875,1
1.501322604924859,0.8336492370042115,3.55848100712952e-06,0.2893229166666667,0
1.355705815653978,0.7800255710362431,5.15518547494195e-06,0.2138888888888889,0
0.9595505016824218,0.6949936064637816,6.454424787300456e-06,0.1664930555555555,0
1.12717873468046,0.6859831328230996,1.090020823457653e-05,0.1572916666666667,0
1.481907210449518,0.7421721710742282,4.568607828380516e-06,0.2359375,1
1.420333471684633,0.8324340581354943,3.789503476667885e-06,0.2252604166666667,0
1.087598032912738,0.647976835125578,8.318292378936321e-06,0.2369791666666667,1
0.9805280604255848,0.5202874908013627,7.042504455522945e-06,0.3572048611111111,1
1.252133956255159,0.7128297764112451,2.400878412577246e-06,0.1828125,0
0.7618954352222477,0.5697619494393522,1.552534889289028e-05,0.1895833333333333,0
1.610738723818703,0.8759574015446879,3.384753135072794e-06,0.3036458333333333,1
1.427333817585336,0.8246963609997313,5.434460015247953e-06,0.3220486111111111,0
1.501873168394572,0.6114681659301512,3.915708006624998e-06,0.2454861111111111,1
0.5606160011868455,0.5658119305188556,1.812469353364072e-05,0.1674479166666667,1
1.034467933214171,0.7009043252903313,8.999994115925282e-06,0.1603298611111111,0
0.939722919914779,0.7778800904894496,1.08666985065375e-05,0.2417534722222222,1
0.761518592228362,0.6082754183473646,4.933685703097888e-06,0.1189236111111111,0
1.016384077199116,0.6368750926762952,1.083723375269651e-05,0.1604166666666667,1
1.37459595750495,0.6743542515234078,6.646248919847878e-06,0.2620659722222222,0
1.680970188638948,0.8103933245163238,4.646910099821122e-06,0.3396701388888889,1
1.955852625915637,0.9103516138917772,3.119347451526807e-06,0.3598958333333334,1
1.068471759916455,0.6544468247245389,7.262986500458598e-06,0.2606770833333333,0
1.628842257870312,0.7862639464761478,5.354777785748529e-06,0.2414930555555556,0
1.977717062489962,0.775091944801506,5.479842948628866e-06,0.4264756944444444,1
0.7006007308226342,0.6700206646465862,5.401356035110674e-06,0.2217881944444444,0
1.649333776593562,0.8310234096167801,3.607776363980107e-06,0.2595486111111111,0
1.485211320306224,0.81952019522625,7.033604034861287e-06,0.30703125,1
1.479158591378656,0.6765856956187152,3.785551727000796e-06,0.2068576388888889,1
2.016263150198748,0.8227617393621937,4.52606009336859e-06,0.3947048611111111,1
0.756370364610963,0.4497626894585673,1.235485140114612e-05,0.1254340277777778,0
1.298758672898562,0.6552887253925723,5.839595905428477e-06,0.1763020833333333,1
0.9747890633195052,0.6182590919429714,8.65622817265512e-06,0.1802083333333333,0
1.342343587732867,0.6707985425373945,6.091815812420427e-06,0.1927951388888889,1
1.930317223453306,0.8446730398881058,5.413414237686719e-06,0.39453125,1
1.728552258286307,0.8711299780542194,6.788285343901565e-06,0.4005208333333333,1
1.901238580262518,0.7988101917125173,4.207125957441105e-06,0.3928819444444445,0
0.8956456862897161,0.6064676824797856,1.275911919284759e-05,0.2446180555555555,0
1.884008605191334,0.8927500784879241,5.678110022755358e-06,0.3935763888888889,1
1.576596410526832,0.8622049472242953,4.486358059049151e-06,0.2743923611111111,0
0.4084876707609,0.4651611656721871,2.613524137186207e-05,0.0755208333333333,0
1.395367517057855,0.8409892433487125,5.120167962311752e-06,0.2902777777777778,0
1.27568559206872,0.5329288590019724,5.662394723955862e-06,0.1630208333333333,0
1.569782065877212,0.8282063706761917,2.68577363984267e-06,0.2572916666666666,0
1.374959400580422,0.7354392134990169,8.767719303719314e-06,0.1964409722222222,0
1.194375630828878,0.6385516302289316,1.258987044047846e-05,0.2102430555555556,1
0.2838128948821061,0.5251641999510754,3.353157846061877e-05,0.2251736111111111,0
0.882526507350794,0.6086650696260576,9.939661555456904e-06,0.3419270833333333,0
1.958926288327924,0.8237283491454447,3.524494726450557e-06,0.3778645833333333,0
1.437048765329388,0.6971460061527145,3.20028744601334e-06,0.2034722222222222,0
1.333561174520664,0.791223334624228,5.197515887806274e-06,0.2543402777777778,0
1.028664813013605,0.6220625701222552,1.046443679647422e-05,0.2645833333333333,0
1.832021528769888,0.8051224805153553,5.571768674811216e-06,0.4818576388888889,1
1.071210489531462,0.7618506188735051,8.13708970137723e-06,0.3138888888888889,1
1.877900015460771,0.9211952374411168,2.988596006634596e-06,0.31953125,0
1.557960873539331,0.7330422494146358,6.41855667353154e-06,0.3336805555555555,1
1.607836970393921,0.7983614458691761,3.841453080624073e-06,0.2618923611111111,1
0.505343349004027,0.3616835608541201,1.700372503851509e-05,0.1184895833333333,0
1.079180370262271,0.6655359367857031,1.205749640909821e-05,0.1263888888888889,0
1.811056340717204,0.8305893241614092,4.32224795473908e-06,0.3008680555555556,1
1.133353996778777,0.7443556975590757,5.249960589448663e-06,0.2500868055555556,1
1.367683807818001,0.6921602133446447,6.507471295477438e-06,0.1838541666666667,1
1.134222133664115,0.7114572965787964,6.444782318196646e-06,0.2322048611111111,0
1.410593513269625,0.6853207439960489,2.619870737637456e-06,0.1967013888888889,0
0.4949470313936531,0.6732984571888118,2.455411643551651e-05,0.0963541666666666,1
1.476332308171637,0.6667317174276159,7.409928491035385e-06,0.2372395833333333,1
1.753051737947811,0.885978778790351,3.601707487808754e-06,0.2772569444444444,1
0.8235759230139519,0.6416168014275339,6.879056052422925e-06,0.2174479166666667,0
0.7197808991362419,0.5538899520352778,1.757423353400943e-05,0.2163194444444445,1
1.273098422059779,0.6921699559764709,9.515820616919963e-06,0.25390625,1
1.626362786868824,0.7434666792758989,6.826061501327674e-06,0.3559027777777778,1
1.988410093134565,0.8082060203034288,4.453258631759023e-06,0.4893229166666667,1
1.652174482837278,0.8670291589075767,3.611198923357764e-06,0.27265625,0
1.408047112692718,0.7699099569889398,7.351048777929879e-06,0.2107638888888889,1
0.906031967341136,0.4652101302576936,8.648811289522234e-06,0.1354166666666667,0
1.453559241785715,0.815543623095748,5.908825481040689e-06,0.2694444444444444,0
0.5460631153388242,0.381828956021626,1.521469780368047e-05,0.0828993055555555,0
1.58478624274918,0.8230375091614455,4.042354856875784e-06,0.3627604166666666,1
0.8009504309625055,0.5580859999833007,1.776901327390719e-05,0.1815104166666667,1
1.284586965137244,0.6720496732311332,6.827752365372621e-06,0.1896701388888889,0
0.2734707728089855,0.591238097686481,4.559267348333777e-05,0.2885416666666666,1
1.149778569745566,0.6068017039328474,8.761355550689921e-06,0.2076388888888889,0
0.8929958199536849,0.5513300050327761,1.104207875112022e-05,0.1435763888888889,0
1.040560236499475,0.6638049255403,8.383345609032154e-06,0.18671875,1
1.312336047140809,0.7912281569158446,4.843124564652303e-06,0.2605902777777778,0
0.898621265187749,0.760824123022798,1.298075051701082e-05,0.1465277777777778,0
0.8091176172570992,0.496086700232706,9.934408969619716e-06,0.1571180555555556,0
1.63796175964907,0.6996100003357951,3.368233005531351e-06,0.3010416666666667,1
1.430957843637853,0.7500685781420908,3.683002179592304e-06,0.1909722222222222,0
1.275242630098356,0.7047362186844527,5.591186026418262e-06,0.2114583333333333,0
0.8534515503684327,0.5466233923187048,1.081062870225147e-05,0.2448784722222222,1
0.9253560491300808,0.4627493214248267,9.65754135106499e-06,0.1247395833333333,0
1.559097043803249,0.8152478470348804,2.163644465741181e-06,0.2322916666666667,0
1.399719244230458,0.7273742133442709,5.667094178527596e-06,0.1985243055555556,1
1.903882520821453,0.8233817363098603,7.121014640883185e-06,0.2777777777777778,1
0.839027639179209,0.7915784236524328,1.281275219739655e-05,0.1594618055555556,0
1.473009025797601,0.5632794063686699,6.923254751299375e-06,0.2067708333333333,1
2.030745297530867,0.8861124170052737,4.735390692252607e-06,0.4289930555555556,1
1.249101740347815,0.6850773765566581,4.047502131733856e-06,0.1584201388888889,0
1.314228566535176,0.6794127740936586,3.983474466135831e-06,0.2444444444444444,1
1.602467434339707,0.5559913634916653,7.10925735500745e-06,0.2140625,1
0.9022545797398952,0.6693525704952111,1.52711005700727e-05,0.0953993055555555,0
1.719049643133993,0.8008840946436248,7.949398259520143e-06,0.3046875,0
0.4031625618073859,0.3989524907852573,2.535614120238417e-05,0.0613715277777777,1
1.601087894550904,0.7543643628544191,9.31144409475539e-06,0.3526041666666667,1
1.385121096176088,0.8575528633202456,3.795496357943268e-06,0.2665798611111111,1
1.717584702231323,0.8955090929342676,3.545663902526731e-06,0.2988715277777778,0
0.9036359266684328,0.5420010327968451,4.77277105769835e-06,0.1453125,0
0.8921089275153874,0.6647715120471812,1.269236247186116e-05,0.11328125,0
1.309833698762706,0.6819950265782957,5.627142341624129e-06,0.3716145833333334,1
0.3211530540615066,0.509410187029296,4.121194352698139e-05,0.1553819444444444,1
1.472496774921522,0.7190435104158076,5.315701642457115e-06,0.28984375,1
1.696171947853323,0.8677133180672881,2.404108403551641e-06,0.2721354166666667,0
0.8463787215007182,0.6463466445918767,9.272101346831596e-06,0.2878472222222222,1
0.5741257752259442,0.7523172838738141,1.668805920473089e-05,0.1288194444444444,0
0.3533590585335976,0.4239983189065053,2.102937734529114e-05,0.0875,1
1.460496747805274,0.7987002227740572,5.375551018595694e-06,0.2121527777777778,0
0.8432781782316948,0.6041477524469172,1.685333502752398e-05,0.2763888888888889,1
1.560011352509657,0.845865076984721,4.86653233005938e-06,0.3112847222222222,0
0.634982695866745,0.5664087598658645,1.626924732568048e-05,0.1547743055555555,0
1.122607045391879,0.7393200426642381,1.548553427061725e-05,0.2464409722222222,1
0.5449850070485522,0.3912499197731867,1.771752476098164e-05,0.1443576388888889,0
0.6696990284745309,0.6156620804633178,1.363974488369176e-05,0.1341145833333333,1
0.7124716454648654,0.7426992500568387,2.722555077178578e-05,0.1546006944444444,1
0.8953167323822492,0.5016832316147752,1.270692739989817e-05,0.2515625,0
1.639257331723504,0.7090749071461077,3.142167363716386e-06,0.2932291666666667,1
0.7148287182808537,0.4224553465007062,1.315148719537525e-05,0.1493923611111111,1
1.052740015486394,0.5515017802823496,7.759865838210953e-06,0.15703125,0
0.6841508361037286,0.4827451570496292,1.142667082762436e-05,0.1743055555555555,0
0.6470248168472799,0.6557154803333057,1.108983072561243e-05,0.1417534722222222,1
0.6753944167804754,0.5667785461540703,1.6940089889468e-05,0.1611111111111111,0
1.437894178668689,0.8441372634078875,4.363446367557214e-06,0.2408854166666667,1
1.583196492288468,0.6981611591935553,6.132954636724233e-06,0.3598090277777778,0
1.100396092506814,0.6010460509791582,1.009822431494993e-05,0.2086805555555556,0
1.354649190500887,0.6660575552180442,1.24539725067568e-05,0.3733506944444445,1
1.188850041160799,0.5972448774904473,6.643070264230534e-06,0.1782986111111111,0
1.691386610784519,0.8609464498159111,6.385092634069931e-06,0.3346354166666667,0
1.669497325355133,0.8793797476467149,3.86990383643489e-06,0.3197916666666666,0
1.476133785081201,0.7474046230701418,2.879636150806101e-06,0.21328125,0
1.390786097407462,0.7568457296813206,3.679776771520056e-06,0.2644097222222222,0
0.7757646240707201,0.5680343066871822,1.453804615859885e-05,0.21015625,0
1.41663592164973,0.7746105105911572,6.468683002875672e-06,0.2181423611111111,1
1.239755195702188,0.7522943075153119,5.275387638309219e-06,0.2230034722222222,1
0.6102068659486225,0.6212109225394823,8.077914964610422e-06,0.1641493055555556,0
0.3144885520390928,0.6933688700281833,2.000011004838074e-05,0.1408854166666667,0
1.596189749298517,0.8687966295101518,4.768068869264205e-06,0.3198784722222222,0
1.605520193800404,0.7574918316932747,7.613702483590386e-06,0.309375,1
1.693977390606947,0.5664991415133217,5.963655871047864e-06,0.3666666666666666,0
1.449498869242283,0.8079704534971409,5.977040661431909e-06,0.2768229166666666,0
1.738961595996437,0.7272295871038736,5.359281528700924e-06,0.4325520833333333,0
1.489581266854954,0.8076848076862327,3.639116572190211e-06,0.2644965277777778,1
1.329196529054868,0.7717621693671779,5.989405377949269e-06,0.2038194444444444,0
1.275749045505195,0.7147649552456525,3.654104094947217e-06,0.1771701388888889,0
1.397954530702322,0.7451621456988331,5.333476902609237e-06,0.2448784722222222,1
1.389120447983167,0.7749283304610544,4.585219831016185e-06,0.2332465277777778,0
2.046258464137153,0.8986710062375447,4.466617930678164e-06,0.4359375,1
1.602913089190371,0.8787568139047919,5.187194790684846e-06,0.33125,1
1.907553022284664,0.8474680439750929,3.577561776088438e-06,0.4450520833333333,1
1.219740441192245,0.8015261923722813,5.662400268219496e-06,0.2362847222222222,0
1.26595067711822,0.5789359514240581,4.145135612522962e-06,0.1616319444444445,0
1.374755431042572,0.8150132985834843,4.330253095218336e-06,0.2366319444444444,1
1.671867313715144,0.7770053817008236,6.821223019903694e-06,0.3196180555555556,1
1.153438426122886,0.5937282865761738,7.868085455198007e-06,0.2417534722222222,1
0.7725315554301924,0.8312697979977971,1.224615131330859e-05,0.1777777777777778,0
1.232754773790089,0.7519486738454427,7.602857838563893e-06,0.25234375,0
1.666936781292603,0.7684590116829427,3.090247941309493e-06,0.2715277777777778,1
1.498293883612853,0.7364131350259925,5.184801808726982e-06,0.2236111111111111,1
1.604940620657439,0.8711696713664383,3.118531139275652e-06,0.2597222222222222,0
1.306281033551466,0.6768888112501689,4.639104157286741e-06,0.1833333333333333,0
1.835548551315869,0.8081272257831961,7.639405096204058e-06,0.3790798611111111,1
1.706004261767761,0.7571579795007988,7.509203620756899e-06,0.3803819444444445,1
0.4454984596419675,0.6277982792196526,1.735657151272407e-05,0.1527777777777778,0
0.7398729758251662,0.3885357736208049,1.778978372428461e-05,0.2928819444444444,1
0.4352971299919621,0.4464876921478069,2.608392202644123e-05,0.0572916666666666,1
1.417887301594068,0.7450674925337476,4.500032033579802e-06,0.2448784722222222,0
0.3670418226237985,0.4221657338766629,1.806286649564374e-05,0.0534722222222222,1
1.215139386861582,0.6134103394671966,1.21731442021251e-05,0.1907986111111111,1
1.190031511688195,0.6094539770492476,1.176022448125923e-05,0.3250868055555556,1
1.321681335057305,0.694010293170252,3.548218691431012e-06,0.1717013888888889,0
1.509406384617186,0.7758621779089226,2.977882033548214e-06,0.2473090277777778,0
1.310427429643178,0.7614650719280076,8.559754854441693e-06,0.2247395833333333,1
1.578818817647161,0.7787241369896127,2.817749797361032e-06,0.2130208333333333,0
1.580745061367169,0.7387826781564985,3.539217059933776e-06,0.2338541666666667,0
2.089016407246261,0.8618552698255704,3.469261528439934e-06,0.4642361111111111,0
0.3629789552351853,0.6260881561414328,4.206641653364847e-05,0.2762152777777778,1
1.141216864652368,0.5991205506421454,7.008581419644417e-06,0.1788194444444444,1
1.49278198728455,0.4794229725535909,6.321243249047055e-06,0.2123263888888889,0
1.431597167233346,0.8181977779219012,7.36998506517412e-06,0.2660590277777778,1
1.149892635738836,0.6989421264916862,8.683592534047198e-06,0.1672743055555556,1
1.204940571711302,0.6318358655370989,1.267365492174462e-05,0.3815972222222222,1
1.565827644804999,0.8447947948349371,3.874848331147582e-06,0.2682291666666667,0
0.6075086620398668,0.382942566197052,1.447322793425806e-05,0.0904513888888888,0
1.151592860401842,0.6599400897024434,1.453665302779254e-05,0.2586805555555556,1
1.189413067876104,0.7944728167398505,6.611732920652189e-06,0.2549479166666667,0
1.306552189709736,0.7595047600213679,2.426933325817204e-06,0.1517361111111111,0
1.126320469606787,0.5500619909027556,2.718571239320959e-06,0.1309895833333333,0
1.60433634294422,0.8308019266819385,2.770747121126102e-06,0.2128472222222222,0
1.827327316671864,0.928746688993617,3.978585787382414e-06,0.3588541666666666,1
0.3685092925066444,0.5084534007446156,2.629998638867107e-05,0.15859375,1
0.2966843764173445,0.3856001560607115,3.577027435863238e-05,0.0578993055555555,1
0.9054445329816704,0.572497805750232,1.189588247320884e-05,0.2394097222222222,0
0.524255292659897,0.4622678604756756,1.847693783625756e-05,0.1106770833333333,0
1.280244478871656,0.7525244747909057,1.022764752315778e-05,0.2370659722222222,1
1.650265415906984,0.8644582428836317,2.96087803291338e-06,0.2938368055555556,1
1.318656645844958,0.8217771308370236,5.169558207192885e-06,0.23359375,0
1.438024094528436,0.7038048263663913,7.088616243263768e-06,0.2654513888888889,1
1.975046862478505,0.8628422164902079,4.906297991896877e-06,0.4756076388888889,1
1.361233637600313,0.7628854072040049,7.085486365106432e-06,0.2317708333333333,0
2.055918176909015,0.8662501055902273,4.199339763253323e-06,0.3667534722222222,1
1.486183136098182,0.8017877190962768,4.76027072659606e-06,0.2556423611111111,1
1.169302775403889,0.695462119415007,2.839303812635507e-06,0.1388888888888889,0
1.086025799037009,0.6193084974822425,1.196116130009891e-05,0.2052951388888889,1
0.9479521041596732,0.6150074300920207,5.637868402587992e-06,0.1555555555555556,0
1.258765517172926,0.786193349365736,4.955590270565971e-06,0.2479166666666667,0
0.4891419219603264,0.6229466741463736,1.180978628733714e-05,0.2128472222222222,0
0.5326428160923038,0.4921585904724191,2.683979911156805e-05,0.1533854166666667,0
0.9361683785777524,0.548679885019463,7.951556712218179e-06,0.1709201388888889,0
0.6540493794478172,0.5781492156613475,1.821258065593122e-05,0.1517361111111111,0
1.637836140982032,0.8525802841342391,4.285067838850142e-06,0.2759548611111111,0
0.6385120206687985,0.641116352227788,1.705036894041149e-05,0.1640625,0
0.899914431873463,0.5760724292427423,1.135281377034354e-05,0.2228298611111111,1
1.493675385040589,0.7281618479338602,4.877936983154042e-06,0.2090277777777778,1
1.442460752214987,0.7174002466484076,1.041689072037325e-05,0.3159722222222222,1
1.453255625612526,0.7677339755161807,3.256385896014339e-06,0.2130208333333333,0
0.7282831904072629,0.5333277460219125,1.683822687561635e-05,0.2457465277777778,0
1.868306089620117,0.875735198480394,3.121577724470033e-06,0.3813368055555555,1
0.5844817728853402,0.5445984925753513,1.769451285671411e-05,0.2059895833333333,0
1.184235357280012,0.6461860659180355,4.289255814492736e-06,0.1644097222222222,0
1.286965893789497,0.7221976565389104,7.74341168545759e-06,0.1938368055555555,1
0.917201164850465,0.490980169403255,1.757279768445984e-05,0.3126736111111111,1
1.016986686244728,0.5752917828057091,7.119269575220343e-06,0.1670138888888889,0
0.3287859822034093,0.3478246659624447,2.205481770200229e-05,0.0802951388888889,0
1.972008121782542,0.8552647534379819,5.236320507977167e-06,0.4183159722222222,1
1.157562767088166,0.6369538670206496,6.440322289126872e-06,0.2035590277777778,0
0.9469721057055484,0.6646428920953132,7.581584398196166e-06,0.2151909722222222,0
1.202284233662301,0.6910322701317557,5.8272660115003e-06,0.1620659722222222,0
1.843377495028883,0.8656907393037978,4.861498170643974e-06,0.4048611111111111,1
1.11439770775644,0.6214143950898454,1.23348771770007e-05,0.1960069444444444,1
1.858810866178079,0.8186409191964747,3.508585932975242e-06,0.3606770833333333,1
1.385089832854753,0.7901172602350207,3.741365478826021e-06,0.2453125,0
1.963984226882048,0.8635771437785377,3.47555948742181e-06,0.4461805555555556,1
1.223473219053482,0.6205677159707358,4.915991035369816e-06,0.2381944444444444,1
1.287391163772414,0.7181127411681769,4.056778877615051e-06,0.2447048611111111,0
1.828563582615163,0.8302252324185279,2.680386001596021e-06,0.3474826388888889,1
0.8756276684701323,0.6139944136383877,1.342911495531982e-05,0.1073784722222222,0
0.2599419558066296,0.7703477108780756,3.417113005086108e-05,0.1565104166666667,0
0.6336842440748239,0.3763777492645304,1.620299002573646e-05,0.1002604166666667,0
0.5393917948929864,0.5233526024933294,2.511346064518092e-05,0.1473958333333333,1
1.481039464667173,0.817186034775224,4.264130729129223e-06,0.2450520833333333,0
1.018206807349761,0.6070875196325269,6.905597489208156e-06,0.1640625,0
1.826790790255898,0.8433745641158658,5.716418978855934e-06,0.48359375,1
1.056726256736912,0.5140960977791339,9.60495175396588e-06,0.1360243055555556,0
1.559601169812589,0.7637492980999123,4.45507444473657e-06,0.2466145833333333,0
1.457214723717526,0.6355321458714831,3.193568016860678e-06,0.2673611111111111,1
1.369917097282333,0.6782196645155085,7.370511683643555e-06,0.1963541666666667,0
1.301582186752089,0.7638554585820673,7.089755952850898e-06,0.2186631944444444,0
0.6305335626368241,0.505509396572038,1.856647856396494e-05,0.1894965277777778,0
1.191082791533661,0.6543045867624879,7.983905762798087e-06,0.2550347222222222,0
1.530065426570519,0.58533131898205,5.868313759162925e-06,0.3689236111111111,0
0.9030163090941826,0.6597058936745093,7.351129072772946e-06,0.2,1
1.423037795397506,0.8368058975643843,5.875580982265186e-06,0.2743055555555556,0
1.334580643442648,0.7430264319875215,6.278465069941539e-06,0.2388020833333333,0
0.3125456607316444,0.4044824755668248,2.707268725436383e-05,0.0447916666666666,1
1.189231143271422,0.6318157294003081,8.040589170339094e-06,0.2311631944444444,0
0.1211288002487845,0.4040061635594011,3.634846721757645e-05,0.2662326388888889,0
1.549510526790722,0.8197570638762842,2.134625763182573e-06,0.2374131944444444,0
0.3855858108863466,0.4216216441621057,2.157833932950153e-05,0.1672743055555556,0
2.005122682298863,0.9248689646989202,4.843451781792377e-06,0.4022569444444444,1
1.012440041000888,0.5637743714261234,6.373450090751239e-06,0.1357638888888889,0
1.520493638467193,0.8093392649975071,4.938219527217149e-06,0.2722222222222222,0
1.576569957767709,0.85359358348815,3.709498153279461e-06,0.2717013888888889,0
0.8660372048708728,0.7369952734081414,1.3934730278016e-05,0.1197048611111111,0
1.34381691064815,0.6847314968842688,5.607744831036423e-06,0.2984375,1
1.524873645057783,0.8159568781416567,3.267074697450034e-06,0.2207465277777778,0
2.015511355304606,0.8204045440138266,4.437002162557015e-06,0.5072048611111111,1
1.333358233194044,0.7840643033623429,4.995209081077918e-06,0.2136284722222222,1
1.150259517213128,0.7087015004563879,6.749396490348422e-06,0.20546875,1
2.071362387786664,0.7801963434178105,4.943952062653628e-06,0.3987847222222222,1
1.497923348984974,0.8220355806473436,3.547852621022309e-06,0.2800347222222222,0
0.7067761601851414,0.5337273534037493,1.096909507051509e-05,0.1400173611111111,0
1.613453697701487,0.8945191574018693,3.189963515960999e-06,0.3138888888888889,1
1.063478236196738,0.6357188549135196,6.838512553878875e-06,0.2697048611111111,1
1.043828085862389,0.5037101667794923,6.832074945643208e-06,0.1760416666666667,0
1.269407317477633,0.659092206474021,6.862001612433654e-06,0.2807291666666666,1
1.264512261705235,0.7563601146167308,7.704880330346505e-06,0.2558159722222222,0
1.411199927219503,0.7824321187782851,5.018353545335099e-06,0.2040798611111111,0
1.538360627172751,0.8278121644804278,3.293782014902283e-06,0.2565104166666667,0
1.464190242998238,0.8294025242934686,4.25820429237802e-06,0.2566840277777778,0
0.9145419380107762,0.7393783785325513,9.543949497265892e-06,0.2225694444444444,1
0.1804066327713191,0.6906539146374292,5.990827984813479e-05,0.0944444444444444,0
1.407614078131465,0.8137198660354071,6.942899322184434e-06,0.2655381944444444,1
1.082370077368428,0.592257239680195,1.001797042447283e-05,0.2822048611111111,0
1.528036421175895,0.8559268697809537,5.555783186463872e-06,0.3006076388888889,1
0.8101870909923058,0.653385696391471,1.851460900898046e-05,0.1284722222222222,1
1.183534298698397,0.7687184850411652,7.358979268230142e-06,0.2147569444444444,1
0.3022400613565444,0.5651238429096452,2.687983323343414e-05,0.2019965277777778,1
0.8261915871506976,0.6865887002919887,9.910271716139934e-06,0.1556423611111111,1
1.786540566956961,0.8077880277706998,5.954164189496381e-06,0.4500868055555556,1
1.509668550724987,0.8554041749297715,3.450808272785096e-06,0.2513020833333333,0
0.469795749860882,0.5609700140530284,1.46470989236131e-05,0.0753472222222222,0
0.7866986781899175,0.6691181612661007,1.176130761084634e-05,0.1780381944444444,0
2.011946179749975,0.7911304302603481,4.798036023592095e-06,0.4040798611111111,1
1.143012145022897,0.7291263089379433,8.040337361080011e-06,0.1817708333333333,1
1.086813030690632,0.6249475125450364,1.31426971717361e-05,0.1618923611111111,1
1.342359763738113,0.6422922177279575,4.078816406822241e-06,0.30859375,1
0.2579260730343633,0.4119886578454131,4.245177015208442e-05,0.0501736111111111,1
0.6016692093115439,0.5683497585344974,1.0908544757795e-05,0.0887152777777777,0
1.946088738362618,0.8576991998308907,5.62685707204911e-06,0.4144965277777778,1
1.733737791305535,0.8069828636797528,3.842158916745901e-06,0.359375,1
0.8313279804344186,0.5446310332326008,1.095308566268835e-05,0.2498263888888889,1
1.329745037067856,0.7837894737878276,4.710036585429197e-06,0.2556423611111111,1
1.727520790129591,0.8255588695515353,2.705202064123451e-06,0.3413194444444445,1
1.444662035783745,0.8371645012843424,4.594100265212607e-06,0.2595486111111111,0
1.432339700305828,0.6219067685473438,9.224090714005972e-06,0.2830729166666667,1
0.4800999144863965,0.5444228739213355,1.968430686087277e-05,0.1682291666666667,0
0.613883642676337,0.4192054756501323,1.461780675424704e-05,0.0890625,0
1.585356640627362,0.8731013053132882,3.575744286998839e-06,0.3065104166666667,1
1.888621808962453,0.7846610311064574,3.229968622379262e-06,0.3494791666666667,1
0.4973243706605515,0.3649167486211,1.890290001074865e-05,0.0917534722222222,0
1.451993223506588,0.7111206517458026,4.796962594467063e-06,0.2683159722222222,1
1.151540175624938,0.6693658459308486,6.687578249500682e-06,0.2256944444444444,1
1.217406700728883,0.6941333507617147,3.803749151885166e-06,0.1828993055555556,0
1.628849276376851,0.8791996909077491,3.979676245906988e-06,0.3197916666666666,0
0.890772917733297,0.4732848049199509,9.241005774809936e-06,0.1587673611111111,0
1.251427827012026,0.6936693796976308,1.09553486093863e-05,0.1513888888888889,0
1.792366725964493,0.8726724414283752,4.171336367111962e-06,0.2958333333333333,0
0.2940928502207983,0.5711223896056102,3.101123566682853e-05,0.2697916666666667,1
1.303216575054442,0.7920554830303406,7.42735247175798e-06,0.2660590277777778,1
1.121359083249705,0.6307899544087054,4.974548399056672e-06,0.1339409722222222,0
0.3553174234681347,0.4759588483703916,1.916462094514892e-05,0.2466145833333333,0
1.558534580121495,0.8657841199437116,6.8973891410988e-06,0.2932291666666667,1
1.12729831401398,0.6130740973990702,5.317123997672789e-06,0.1940104166666667,0
0.4017352677810629,0.5628001071854681,1.404151836301449e-05,0.1731770833333333,0
1.43373335632278,0.7656318607116138,5.111525046157129e-06,0.2441840277777778,0
1.604384800966743,0.873271621133963,6.314462802546985e-06,0.3076388888888889,1
0.4450640314854083,0.57541993630574,1.351567554289609e-05,0.1637152777777778,0
0.7055622607767543,0.6568511900385016,2.640937676745549e-05,0.1248263888888889,1
1.842781677474687,0.7875515014198521,6.120533498803764e-06,0.4555555555555555,1
0.796142659615866,0.7191965844444907,2.045671333725095e-05,0.3150173611111111,1
1.471811834579988,0.7552529775630146,4.853052745466547e-06,0.3049479166666667,1
1.631130025033605,0.876882819334929,3.533735479908101e-06,0.3340277777777778,0
1.699720375219996,0.8792461205462924,3.270397293566688e-06,0.2931423611111111,0
2.066253936236051,0.8930766774794194,4.48325278420507e-06,0.4065104166666667,1
0.1642044823815499,0.4420274201245716,2.881639494343575e-05,0.1280381944444444,0
1.222076456524694,0.673412828830921,4.095834695779989e-06,0.1467881944444444,0
1.148390307466681,0.6681066809038895,7.127246984484853e-06,0.1708333333333333,1
1.495952562944962,0.7381842525606449,4.763406636382721e-06,0.2337673611111111,0
1.438166914188919,0.6177731370408416,6.528468138577968e-06,0.2203993055555556,0
1.553275341023904,0.8687917221855388,3.413280361359249e-06,0.32578125,0
0.8163304269678173,0.4464322926152715,1.21898679780108e-05,0.1400173611111111,0
1.584931490291413,0.818634449151937,5.74332889446486e-06,0.2556423611111111,1
1.355209395075793,0.6773170289220091,1.229088880269298e-05,0.3164930555555556,1
1.032721312129694,0.6444586079407352,6.559138498075237e-06,0.2053819444444444,1
1.155367036366077,0.7666991285629505,5.121783555628888e-06,0.2234375,0
1.060110302638867,0.6766108816028872,1.805897690972942e-05,0.1778645833333333,1
1.592571670083805,0.8791924884687834,3.50512440733797e-06,0.2809027777777778,0
1.47352422130557,0.8094048147872829,4.931617773098766e-06,0.26171875,0
0.8344861038559863,0.6529769983540278,9.798340640957632e-06,0.1575520833333333,1
1.894358518363704,0.8166043198637685,5.011949094761002e-06,0.5111111111111111,1
1.481018744038806,0.7595371651205803,6.668999252378662e-06,0.2259548611111111,1
1.591983721190997,0.8567226010099095,2.789915980861625e-06,0.2703125,0
1.540219600270603,0.7654290191183338,5.104048517563188e-06,0.2607638888888889,1
0.6457619789536578,0.5658719289397158,9.965565582159672e-06,0.1002604166666667,0
1.633425843393892,0.6161036407697557,6.688095969280191e-06,0.2662326388888889,1
1.522764828840863,0.8491668691197379,5.352605629590704e-06,0.3174479166666667,1
1.849025073647274,0.9166954530971276,2.990238418816026e-06,0.3225694444444445,0
0.9235050454609224,0.5781793284838427,7.992052152252764e-06,0.1645833333333333,0
1.634775490550643,0.8826596972235564,5.526064957877962e-06,0.3147569444444445,1
1.144560233251375,0.6983791750290993,5.556614261682249e-06,0.2064236111111111,1
1.444894918734974,0.7149841832872316,3.974098469562185e-06,0.2197048611111111,0
1.540277605291845,0.81931228329306,4.117850449959722e-06,0.2474826388888889,0
0.4404869671643899,0.6526681568550696,2.668425480369934e-05,0.1586805555555555,1
0.7225901592715651,0.5973595821407904,1.106949405106349e-05,0.2095486111111111,1
1.800638855399742,0.8001647144850524,4.404869889956217e-06,0.2985243055555555,0
1.851460308919133,0.8667533799341703,6.114357027936462e-06,0.3743055555555556,1
0.8700713984896181,0.5737463731358232,1.247302635168149e-05,0.2491319444444444,0
1.643783129951668,0.8705594785581348,4.623158339228772e-06,0.3203993055555556,0
0.5617054888807878,0.4058481013118713,1.691152025733518e-05,0.1011284722222222,0
1.459612547554698,0.8116690514423881,1.144912566656095e-05,0.2971354166666667,1
1.109412209312238,0.5976749600618924,1.358079559197787e-05,0.2025173611111111,1
1.567491602005475,0.8833615691371846,6.807915054141249e-06,0.3196180555555556,1
1.011586030156267,0.6585993580264695,1.133828240647252e-05,0.1256076388888889,1
0.6248885108857748,0.4756694701406421,9.63370403320828e-06,0.2665798611111111,1
1.876074567699589,0.9107062079289492,3.693306476425975e-06,0.3170138888888889,0
1.095632192497447,0.6918628280732921,7.968734950768376e-06,0.1474826388888889,0
1.462072163909106,0.8077422547352944,5.357966183953168e-06,0.2435763888888889,0
1.136182960474253,0.6772674611623617,1.169022211427011e-05,0.1436631944444444,0
0.5396165988734853,0.6317016669462467,2.647792579416084e-05,0.3436631944444444,1
0.5758760581613701,0.5759711855372436,1.977166372883401e-05,0.1579861111111111,1
1.270795444042863,0.720257414077011,7.663581204494753e-06,0.1824652777777778,0
0.8525180793361823,0.6496774274768806,1.613335497450201e-05,0.20078125,1
1.138097528584557,0.704641017367423,5.941801107412954e-06,0.2456597222222222,1
1.770124613732736,0.9180230039086288,3.146073254783584e-06,0.3055555555555556,0
0.8131079241583139,0.6062555222982758,1.642756377797604e-05,0.1481770833333333,1
0.6630898299304374,0.4642751470801795,2.299685348972261e-05,0.2183159722222222,1
1.120138532782549,0.6425968602803078,9.413090266852076e-06,0.1621527777777778,0
1.123146880808421,0.7397305763779214,4.841761121492708e-06,0.1792534722222222,0
1.544504111694823,0.8819596484429892,5.151869189293275e-06,0.3995659722222222,1
1.540855036724468,0.7973670941133152,4.095235738821881e-06,0.2756944444444445,1
1.561024570720551,0.708644293244447,5.81834146693174e-06,0.2451388888888889,0
0.4660200640642754,0.4507447491754312,2.030228808513092e-05,0.1895833333333333,0
1.220430951707305,0.622736233166538,3.945016446331243e-06,0.2006944444444445,0
1.143687534494563,0.7255118964646102,9.236836396519956e-06,0.1557291666666667,1
1.58679721164639,0.7137907657127954,7.931906993473547e-06,0.4496527777777778,1
1.468465716729064,0.7285796567801209,9.154720684886442e-06,0.3347222222222222,1
1.15560333279092,0.6836345028213834,8.222268138966531e-06,0.2072916666666667,0
0.917349316155086,0.6454432515038013,1.573494365339947e-05,0.0948784722222222,0
0.8559656308234616,0.658322008212572,1.298020187400775e-05,0.2230902777777778,0
0.0610774790130678,0.3704631316069265,4.678240484864431e-05,0.1469618055555555,0
1.343501277991373,0.5935534333591249,4.05211276381187e-06,0.24765625,0
1.515939606607548,0.7749861404142621,3.242524157979031e-06,0.2361111111111111,0
1.182943592676361,0.6079001866778975,8.839750107139173e-06,0.2030381944444444,0
0.3070534996662859,0.5199496782909371,3.32945984857306e-05,0.2169270833333333,1
1.133384597453041,0.7199861553681559,7.984911103445287e-06,0.17109375,1
1.084995349558224,0.6985991982939874,1.069663706018458e-05,0.1439236111111111,0
0.8319790733272081,0.7421448509088009,1.256124167290099e-05,0.1625,0
0.3989883586021433,0.3481286876564125,1.798343720281738e-05,0.0763888888888889,0
0.4289820415046007,0.5598265549992776,8.22508245664405e-06,0.1215277777777778,0
1.452025213739478,0.7505051477711193,4.492377810142735e-06,0.3930555555555555,1
1.595701322416685,0.9077388257993502,4.187357213399254e-06,0.2143229166666667,0
1.470343838931656,0.5116910703905495,8.869821022706035e-06,0.3297743055555555,1
0.5396170703733071,0.5969083658099595,2.063342068650347e-05,0.2146701388888889,0
1.686803319581105,0.7231700966020036,4.814989219857575e-06,0.3259548611111111,0
0.9225027951570696,0.654373493403407,1.547078034851694e-05,0.0888020833333333,0
1.474817628922108,0.6535889623784144,4.699508189569544e-06,0.2434027777777778,1
0.6999088253895427,0.4505854685019155,1.884186791366583e-05,0.1427951388888889,1
2.078735993213058,0.831311867437023,4.582579391624119e-06,0.5091145833333334,1
1.563381495190274,0.8438903239735189,3.436415475372579e-06,0.2671006944444445,1
0.2668309821329304,0.4691843277691281,3.22143465258653e-05,0.1859375,1
0.9831856521246906,0.6028236347328237,1.324665861128366e-05,0.1096354166666667,1
1.256710344135311,0.5984863686228139,5.420000927610082e-06,0.2189236111111111,0
1.361375963751262,0.7746349803064324,6.357125525971175e-06,0.1935763888888889,1
0.5956523595469755,0.5937618877832948,8.544154191177633e-06,0.1950520833333333,0
0.779179899738186,0.7241520007269839,1.147661662026092e-05,0.1730902777777778,0
1.530193515846103,0.6893095260732093,3.608083879761195e-06,0.2864583333333333,1
1.279520871720414,0.7215007433426209,6.851872054888945e-06,0.2151041666666667,0
0.9086932210535456,0.6618771241759165,1.39034799532123e-05,0.1105034722222222,0
1.355728940075166,0.7959589039550121,4.233667832980976e-06,0.253125,0
0.5695358560375287,0.5134134399038199,1.840448453713332e-05,0.2300347222222222,0
1.121905758661935,0.7504896337649439,4.470520442001531e-06,0.28359375,0
0.9112911712153056,0.5559954451148446,9.878676058054988e-06,0.2545138888888889,1
1.142584931904091,0.6942305652769111,6.803939116635982e-06,0.1750868055555556,0
1.450094921257455,0.8329144104523601,4.028196577796652e-06,0.25859375,0
1.499689030325063,0.7186605110366201,1.019206124314091e-05,0.2295138888888889,0
1.752934603625752,0.7256513456198328,3.795986464788597e-06,0.2933159722222222,1
1.256984202175518,0.7418520496087961,7.970425094460177e-06,0.2176215277777778,1
0.3346144485043216,0.5750657937042608,3.327763615806714e-05,0.1493055555555556,1
1.611847143908389,0.8629545843636985,6.27120011034861e-06,0.3311631944444444,0
1.304658189474194,0.6566535834367084,6.394231824114825e-06,0.2697048611111111,1
1.39481174821248,0.8014403544069422,5.26267803361147e-06,0.2612847222222222,0
0.4171033532663589,0.5221265898713575,1.662034528009768e-05,0.175,1
1.080841815679292,0.685315037272496,1.105292126199494e-05,0.1324652777777778,0
1.457135704573041,0.7963548062795122,5.005889100195574e-06,0.2421006944444444,0
0.7331520369882587,0.6581245900197606,1.381567303129958e-05,0.1342013888888889,1
1.243768512278881,0.7108704621324371,6.791802272516065e-06,0.1706597222222222,0
1.920952246563834,0.767429453584216,4.168465651286991e-06,0.4388020833333333,0
1.47666015327519,0.8461176139073162,3.650757464381414e-06,0.2944444444444445,0
1.452905511993687,0.8290622725102964,4.331401368162521e-06,0.2546875,1
1.423816289724716,0.757674928963451,7.126298257141581e-06,0.2036458333333333,1
0.706443644961108,0.600431580745832,9.26904335646458e-06,0.2388888888888889,0
2.11663722975095,0.8577106435636777,3.241286326532902e-06,0.4295138888888889,0
1.401498133954175,0.8176032192043562,5.636231580182588e-06,0.25,1
0.7645084417358896,0.5569162931410995,1.646225131198522e-05,0.19296875,1
1.860766429893997,0.9042717419149152,3.334686616149946e-06,0.3540798611111111,1
0.9233018662785922,0.6320988621510354,1.166329152345087e-05,0.2232638888888889,1
1.692117705994929,0.8515913393459502,3.80075126239753e-06,0.2743923611111111,1
1.187719067314725,0.754624526776879,7.043380992693862e-06,0.2443576388888889,0
0.4475601088199383,0.6068741944409953,2.32097986545417e-05,0.1828993055555556,0
1.350077235496442,0.6997118391354571,5.64229646015653e-06,0.25,1
1.377455140638711,0.8016213084837457,9.209778964039786e-06,0.2796875,1
0.6689354887870895,0.6375526916220653,1.546950006555443e-05,0.2,0
0.8445033719416207,0.641220196738137,1.225304368753498e-05,0.3081597222222222,0
1.204919155829975,0.7102624626012737,8.646136466663009e-06,0.1731770833333333,0
1.650794264248752,0.7044130595824877,3.943512835455491e-06,0.2809027777777778,1
1.297117191479871,0.7234203476789763,8.745716252343423e-06,0.1844618055555556,1
1.546031546606835,0.8195448224032673,4.016200537435451e-06,0.3494791666666667,1
1.675652370333451,0.843652514442618,3.015672196333696e-06,0.3605034722222222,1
1.436860911613624,0.7584743378752676,4.976196721228645e-06,0.2376736111111111,1
0.7290301245343083,0.6052409501948084,1.363810715025114e-05,0.2188368055555556,1
0.6323961613925717,0.5256386242339856,1.853221730426836e-05,0.2680555555555555,1
1.991465831459557,0.8647525853151087,5.263617324318077e-06,0.3969618055555555,1
1.101670282770133,0.7214499696979154,8.030985712103857e-06,0.18359375,1
1.13501242408071,0.59944635208913,6.800982430242e-06,0.2276041666666667,0
1.441065278545482,0.8209294617920969,3.884799881891045e-06,0.2880208333333333,0
1.870247530663796,0.8443589035281363,5.73857131840123e-06,0.4014756944444444,1
0.7907937743926773,0.4614507091194223,1.080485597424282e-05,0.1269097222222222,0
0.3014036758469956,0.826176834920571,2.300932610247676e-05,0.1259548611111111,0
0.7627647205364022,0.4581128715904381,8.816445044473831e-06,0.19765625,0
1.033344050634932,0.5823145501682953,5.478500921920365e-06,0.2530381944444444,1
0.942946257688637,0.6323158175935067,7.70673828592451e-06,0.178125,1
1.587016275319604,0.7892502041725662,4.556876089536447e-06,0.2627604166666667,1
1.268280754005045,0.7579246784767425,1.223732041019229e-05,0.2394965277777778,1
0.2114235913043434,0.8004924676256077,3.198639034531171e-05,0.0934027777777777,0
0.8774099952302532,0.5735231732579102,1.251458944921383e-05,0.1914930555555556,0
0.9186380903260204,0.6645552276393627,1.175881606047444e-05,0.1310763888888889,1
0.9410500449032734,0.6243600117765256,1.303899862027593e-05,0.2045138888888889,1
0.995333836903,0.6696295172033864,1.103619310356132e-05,0.1229166666666667,0
1.358611565001123,0.663880460111645,2.206152654790851e-06,0.1665798611111111,0
1.30031918499938,0.7353448193188504,6.078042199742111e-06,0.2755208333333333,0
1.011135884869743,0.5376456523003661,7.536564209923465e-06,0.1418402777777778,1
0.7572795644697944,0.637542671767768,1.190590260091751e-05,0.2397569444444445,1
1.217533258828634,0.7343333581917887,6.905888246381034e-06,0.3068576388888889,1
0.5296947367907897,0.5905155493551009,2.945320125697745e-05,0.1010416666666667,1
0.3726975987749302,0.4737117518777585,8.714547479199997e-06,0.1347222222222222,0
0.95439271120636,0.4692752786429565,7.741163405334701e-06,0.2620659722222222,1
1.287341046917,0.7742566609466973,6.052867279915271e-06,0.27421875,0
0.6407052524381871,0.7200049598930415,1.520132793097906e-05,0.2063368055555556,1
0.7284393988444358,0.5641151506855716,1.977383402017729e-05,0.3032118055555555,1
1.243621523379158,0.6730552401805104,3.732142989141527e-06,0.1587673611111111,0
1.513648129748999,0.7371714927239458,4.783848320554114e-06,0.2202256944444445,1
1.033648524659806,0.7696204415750346,5.162710433614791e-06,0.2755208333333333,0
1.075091836101687,0.6977982498548275,8.86064336589637e-06,0.4349826388888889,1
1.186300038176926,0.6622820427272837,7.625317010811628e-06,0.2094618055555555,1
0.295326987865744,0.5517554508835658,3.339075137173506e-05,0.1871527777777778,0
1.184875463918553,0.7522915911438053,7.481593970629865e-06,0.2951388888888889,0
1.244190857009375,0.6950711631016279,3.748353123231242e-06,0.1686631944444444,0
0.4264183934383031,0.4849346434791975,3.758739404969822e-05,0.1442708333333333,1
1.312863019372688,0.741862552513339,4.873433021804408e-06,0.2243923611111111,1
1.240357524270557,0.7218119852101775,5.868583286092204e-06,0.1743055555555555,0
1.719493120437698,0.8853681215277907,3.250645735993902e-06,0.3691840277777778,1
1.910914724050773,0.8832637119467905,3.870945105040045e-06,0.3506076388888889,0
0.6006435250317338,0.4278903913457094,1.235335082784073e-05,0.1035590277777778,1
1.167320132623682,0.6262565564179606,1.148328612601872e-05,0.2394965277777778,1
1.149555235835257,0.7205080076909398,8.93270944332857e-06,0.1777777777777778,1
1.317437345808284,0.667873241828091,5.717306543453829e-06,0.2232638888888889,0
0.9705185923687528,0.6405870869453107,1.36957392645846e-05,0.1206597222222222,0
1.270756345132249,0.6231420192917575,7.456717307723165e-06,0.1782986111111111,0
1.986367333679414,0.8374018090918014,5.463516045985407e-06,0.3942708333333333,1
0.7112506175868928,0.5351729511723254,4.956547532027359e-06,0.1672743055555556,0
0.56958456070985,0.5664616241095121,8.475280359351423e-06,0.109375,0
0.0155663346801767,0.7594706422781702,6.414433820623942e-05,0.1989583333333333,0
1.099899809363188,0.7885606352453112,6.984394618323872e-06,0.2932291666666667,1
1.08296325646434,0.6801762573374547,7.330652606022509e-06,0.2278645833333333,1
1.564683541557475,0.8567903086490101,3.27173446495268e-06,0.3064236111111111,1
0.3908670795452919,0.4122216459966495,1.952316036825635e-05,0.0852430555555555,1
1.243109013094143,0.6963331166325419,4.068511958484252e-06,0.1473090277777778,0
0.5909856585233448,0.5605686685757056,1.63886170239619e-05,0.2161458333333333,0
1.39583533126449,0.6336848374079611,3.994035211435616e-06,0.2675347222222222,1
1.446271541341932,0.7454318687675701,2.131284195872567e-06,0.2151041666666667,0
0.359112964261424,0.5406930926575534,3.652688018588654e-05,0.1302951388888889,1
1.495606681098508,0.5171467298335443,8.315879061269663e-06,0.2214409722222222,1
0.966451570753,0.604355718080751,9.719227052802229e-06,0.2356770833333333,0
1.248333519406558,0.5220358692368218,1.097551669189746e-05,0.3193576388888889,1
1.536416545028719,0.7823481453494502,4.921569415847446e-06,0.2625868055555556,1
1.389366012811027,0.7885997704875936,4.653747064226003e-06,0.2403645833333333,0
0.8995676067078379,0.671511193857499,1.178481404215786e-05,0.2677083333333333,1
1.228704726021929,0.5505638629206736,1.173567455044649e-05,0.3705729166666666,1
1.161687365231209,0.6709392087974507,8.98215095636952e-06,0.1620659722222222,0
1.835456468076203,0.8450231757634393,3.471200676857984e-06,0.3330729166666667,1
1.674393685078477,0.7013394133306691,8.136194897553047e-06,0.4332465277777778,1
0.6943481865844389,0.4389255617458716,1.088080942472256e-05,0.1568576388888889,1
1.531408144054579,0.8756360432872422,3.512504479999955e-06,0.3239583333333333,1
1.213516240285757,0.7745284537379872,6.86150534524336e-06,0.2705729166666667,0
1.130207066637674,0.6113069443028598,1.103457030389888e-05,0.2603298611111111,1
1.735996091086675,0.8956595228834542,3.258436102041972e-06,0.3190104166666667,0
1.412984681904932,0.7885948152433937,6.554264561889639e-06,0.2061631944444444,1
1.553065562978277,0.8788331521575156,4.259715919876311e-06,0.2799479166666667,0
1.075719121926654,0.635695610233882,1.976442324476883e-05,0.2467013888888889,1
1.022081353488332,0.5020547969049262,6.999649105103613e-06,0.20703125,0
1.682381259462282,0.8643142451203393,2.718676431744291e-06,0.2639756944444445,0
1.716127206253603,0.92027993254469,2.210798256170569e-06,0.2907118055555555,0
0.9757419771357932,0.5129839714412355,8.76703896374503e-06,0.1625868055555555,1
0.6074111484084068,0.5962026901188349,1.028132596654593e-05,0.1092881944444444,1
0.4501526672949387,0.4744095205431084,2.274908602869196e-05,0.2092013888888889,0
0.9160981194683704,0.7656464412653111,1.080910261918231e-05,0.3044270833333333,1
0.9067241425640892,0.6252001827372319,1.177255956046075e-05,0.2269097222222222,0
0.6821108682277491,0.6598836600283718,1.533122420177755e-05,0.1399305555555556,0
0.6623919345319497,0.4553114947901718,2.442777985224009e-05,0.2522569444444445,1
1.350201516024427,0.7406479021589033,6.737514861927852e-06,0.3206597222222222,0
0.5716631445548966,0.4549347300829353,9.677148455207263e-06,0.1294270833333333,0
1.532495519631163,0.7946492415900019,2.773739952084254e-06,0.2317708333333333,0
0.8021150524531011,0.7831335753742665,1.25178782137414e-05,0.1362847222222222,0
1.28700865468982,0.7906187309360488,4.79556285937319e-06,0.2938368055555556,0
1.468955774619686,0.6240224544902094,6.765552931351052e-06,0.2072048611111111,1
1.641360215149052,0.8149775111434907,2.82019428770009e-06,0.2451388888888889,0
1.642514940242332,0.8491059890627419,4.372765760379383e-06,0.2971354166666667,1
0.0875916191644262,0.8675327050173017,0.0001091201337579,0.1484375,0
1.147650794607144,0.4853098684376292,5.795593548328088e-06,0.1952256944444444,1
0.4904300751397783,0.541241703807849,1.915039831285851e-05,0.1613715277777778,1
1.091355265354894,0.6546132558746723,9.764524120132743e-06,0.1373263888888889,0
1.390533365301693,0.802913096197693,4.554218866714239e-06,0.2266493055555556,0
0.7951813770748329,0.430472925286297,7.970740934177012e-06,0.1352430555555555,0
1.458560737628369,0.7110815804872607,3.579956807947739e-06,0.2116319444444444,1
1.98207764975985,0.9102458263399678,4.612587563627814e-06,0.4513888888888889,1
1.021128754971764,0.5483382116983636,1.114738863009318e-05,0.2543402777777778,0
0.9880481647683316,0.5456516504853793,7.998659740630013e-06,0.1410590277777778,0
0.3263103523317775,0.4188946070218442,1.536856467489838e-05,0.1950520833333333,0
1.120098827440164,0.5850317791882236,1.111666620610885e-05,0.1657986111111111,1
0.2917792864457853,0.4009740053183203,2.513773721270495e-05,0.0489583333333333,1
0.5811702945848559,0.475830154477666,2.174073339385449e-05,0.2365451388888889,1
0.9368695728483792,0.5134380871037396,6.147135167574593e-06,0.1802951388888889,0
0.7478766637647792,0.7762520098743124,1.214326191177439e-05,0.1540798611111111,0
1.631752464358828,0.8504509390183771,2.298982662001168e-06,0.2655381944444444,0
1.734284652069466,0.8725756839911127,3.308743352537958e-06,0.4349826388888889,1
1.61335701839597,0.861236287195153,4.350711527534934e-06,0.3091145833333334,1
1.440029877953314,0.7963203184743449,3.591687554490593e-06,0.2366319444444444,1
1.358961796621894,0.7722222247447529,8.883597912260272e-06,0.2307291666666667,0
1.30980606592705,0.798515833603533,7.447493706788095e-06,0.2661458333333334,0
1.565614321969515,0.6478690538305109,6.435388617732212e-06,0.2811631944444444,1
1.226035272034979,0.7189711001582618,9.77064169078948e-06,0.1905381944444444,1
1.224428600941795,0.652502213864837,6.756127982061053e-06,0.1967013888888889,0
0.3393037409850875,0.3980462292731948,1.900801088236569e-05,0.1097222222222222,0
1.524704218827711,0.7727309234764188,2.797379439408423e-06,0.20078125,0
0.5621874819827617,0.5923147833860716,2.334288453958511e-05,0.1470486111111111,1
1.241402457540564,0.6054718692900134,8.304637185630116e-06,0.1684895833333333,0
0.7651224446698498,0.5906654510284248,8.119949520385144e-06,0.1587673611111111,0
1.225201371221547,0.6247453891630514,4.754964999828945e-06,0.1837673611111111,1
0.3966658709556712,0.5707853254084246,3.09063657027108e-05,0.2914930555555555,1
1.853728693901833,0.9176590446490194,4.652790259981517e-06,0.3342881944444445,1
0.2517030245271523,0.604123730705394,4.910310535508224e-05,0.2715277777777778,1
1.78918279267803,0.8577066408179983,2.473950364538137e-06,0.2738715277777778,1
1.128075326764211,0.6088711186305314,1.200478706500796e-05,0.2019097222222222,1
2.017880406167187,0.8805634346254599,4.798833912486475e-06,0.4157118055555555,1
1.431174775913812,0.7902137790010241,5.038005143694723e-06,0.2189236111111111,0
1.367210000311951,0.7938534607034303,4.55042761307159e-06,0.2868923611111111,1
1.334210496373737,0.7411795967876426,7.129653861253214e-06,0.2471354166666667,1
1.282093124028791,0.6234720790976895,5.748765900270254e-06,0.2204861111111111,0
1.260018939267248,0.5306584811430634,4.983201558509142e-06,0.2234375,1
0.422910985795638,0.4516214206230762,2.500210345471525e-05,0.2052083333333333,0
1.896192707732667,0.7487917115848287,5.078889032886991e-06,0.3028645833333333,1
1.312577055076491,0.7489552908153028,6.180575958302662e-06,0.2552083333333333,0
0.3473789927624308,0.5715251568543417,2.4724043082877e-05,0.1702256944444444,0
0.8794007531187011,0.5376739956736549,1.757657179806063e-05,0.4141493055555556,1
1.354101482062855,0.7997008869054595,5.735416778355498e-06,0.2669270833333333,0
1.343207210845448,0.8018761926310252,4.063584792169331e-06,0.2580729166666667,1
1.314830622625323,0.6908755856511869,2.549529070266963e-06,0.2306423611111111,0
0.5963908582083669,0.6552338489017153,2.137372906117679e-05,0.0953993055555555,0
0.4082082028423107,0.598875409897583,1.634317377056762e-05,0.1743923611111111,0
1.339657932820811,0.743733930367118,3.774024169586985e-06,0.2978298611111111,0
1.733103918696794,0.7829911348265075,3.410120525292275e-06,0.2958333333333333,0
1.972550372842651,0.7843625473528233,5.087193856334359e-06,0.3787326388888889,1
1.515780653597421,0.7479900026419071,1.038322588878885e-05,0.26953125,0
1.952673578957933,0.8412089694274136,5.287521655153588e-06,0.4002604166666667,1
1.01300802886841,0.7266836892973377,7.760522218391648e-06,0.2097222222222222,1
2.004003303726768,0.8468468240496063,5.271997364674839e-06,0.4641493055555556,1
0.0510651319465285,0.5541127667037317,5.85970860808231e-05,0.2506944444444444,0
1.182813937969156,0.7180183678762267,8.657497006843433e-06,0.1604166666666667,0
0.8746588253660111,0.6488150408238276,1.013440725358602e-05,0.2855902777777778,0
1.583896617448184,0.8532545744475692,4.065440772722658e-06,0.2683159722222222,0
0.7814686556368994,0.4911732967319492,1.429824261056577e-05,0.2602430555555555,0
1.298676550896215,0.7597678991922026,7.353386369401011e-06,0.2291666666666667,0
1.492212476504184,0.8225864507917093,4.372789780909881e-06,0.2441840277777778,0
1.55709733239726,0.875742805549373,5.98116933145798e-06,0.3210069444444444,1
0.5148099641713291,0.5867791659424859,2.355141787027319e-05,0.1525173611111111,1
1.439358935788537,0.8011232205913656,4.00279789859303e-06,0.2287326388888889,0
1.683539845846686,0.5608501854154785,5.795021532107882e-06,0.2590277777777778,0
1.478697760577308,0.7356524554153764,6.538712346038972e-06,0.2265625,1
1.818094598878356,0.8245463977680022,2.747708753609179e-06,0.3422743055555555,1
1.4374659635557,0.8420491837206688,6.573578989349148e-06,0.3090277777777778,1
1.344727133145736,0.6700900556271671,5.450570524602647e-06,0.1895833333333333,0
1.541099306670044,0.8468997250291849,5.987297506873146e-06,0.3138888888888889,0
1.022286612999471,0.5946219210990766,5.996665453602577e-06,0.1495659722222222,0
0.7008053660356242,0.6126780557392502,1.313139325646356e-05,0.1384548611111111,1
1.274119711892197,0.7807714571310808,8.183516640884372e-06,0.3131944444444444,0
0.9955711893921756,0.6536607084264381,9.258177016679011e-06,0.2339409722222222,0
1.644256957781735,0.8506252170200981,3.938228573719216e-06,0.2677083333333333,0
1.268170510345773,0.6572409136339098,6.997097522970154e-06,0.1881944444444444,0
1.859538448706473,0.9040064843353346,2.930907312998919e-06,0.3013020833333334,1
1.454586199416844,0.579893152792702,5.13594033597998e-06,0.2504340277777778,1
1.611308951231309,0.8512049973287371,2.40946086439685e-06,0.2714409722222222,0
0.2943477255943633,0.4040535217509406,3.200556502325963e-05,0.0663194444444444,1
1.331666368671681,0.5802603169726526,9.371946884787211e-06,0.4676215277777778,1
1.256127820080502,0.7011745844312884,1.355440566542745e-05,0.2473090277777778,1
0.8919211090911265,0.5935290432196743,2.228890833756611e-05,0.1835069444444444,1
1.050688456564087,0.6815199414747085,4.943180872202923e-06,0.18359375,0
1.968291215352082,0.9003402419234632,4.617452161686736e-06,0.425,1
0.7699694446832543,0.6204352949437807,4.877382864115461e-06,0.1444444444444444,0
0.2649167307613695,0.449725121986027,3.439535782019129e-05,0.1765625,1
0.6767913347225005,0.3909918922937309,2.331839734198707e-05,0.3197916666666666,1
1.481131050629184,0.8312433467205789,5.996251994634228e-06,0.3533854166666667,0
1.407502438697686,0.6692599829817946,5.629617761475231e-06,0.4326388888888889,1
0.9298120137368996,0.629775897551606,1.362972622920343e-05,0.2106770833333333,1
0.7930226587260019,0.5854583287309906,7.745341581176995e-06,0.1361111111111111,1
1.796989998210841,0.881525348529376,3.067336107861895e-06,0.3027777777777778,1
0.3075527459385644,0.5118962502683289,2.527681863448322e-05,0.1423611111111111,1
1.159709388232364,0.5833776152527651,1.275093450848898e-05,0.3174479166666667,1
1.655399414064948,0.8468577466017396,3.01117397523982e-06,0.2871527777777778,1
0.1701086888499759,0.4343434833953626,4.641105330001218e-05,0.1441840277777778,0
1.572773490256597,0.67603182621619,5.372341639660477e-06,0.2795138888888889,1
1.616321312366507,0.7977429897088298,4.569685220331866e-06,0.3836805555555556,1
1.466224749992866,0.7642163200035107,2.392679747092988e-06,0.2340277777777778,0
1.443986339093005,0.7263230521353236,6.017533752137482e-06,0.2227430555555556,1
0.9692230624641516,0.6306275348790493,1.35418278201177e-05,0.21015625,1
1.446909638493072,0.8134637401561039,4.975774330914768e-06,0.2321180555555556,1
1.261703838403448,0.6340965757275709,4.759130572293541e-06,0.1953993055555556,1
1.617778141606899,0.8196610529654071,2.866844915645791e-06,0.22265625,0
1.413651900706235,0.7212537728604786,5.953218720073843e-06,0.2513020833333333,0
1.528391905105963,0.8914259503864379,4.346792713341251e-06,0.3404513888888889,0
0.4006854326657471,0.3650432194663861,1.881968826735268e-05,0.0823784722222222,0
1.128510407688941,0.609742530175055,1.332707321278072e-05,0.1930555555555556,1
1.692011049431778,0.8749481695253213,3.265134575242909e-06,0.2794270833333333,0
1.324262417105495,0.6614721103088331,7.245899670757072e-06,0.30625,1
0.5067765786526783,0.5054267527547943,2.115809936009715e-05,0.0915798611111111,0
1.273675408104808,0.7083029870870118,8.561426554088852e-06,0.1965277777777778,1
1.23118622439608,0.7152371443368757,9.170507984361629e-06,0.15625,1
1.60673387774998,0.8259126335568566,5.210564072318932e-06,0.2962673611111111,1
1.372028686022821,0.6784638918043273,1.908629643666207e-06,0.1982638888888889,0
1.485529376259031,0.7943864105237737,3.504589184809017e-06,0.2888020833333333,1
0.99464756071843,0.6250358889175253,4.872125644816307e-06,0.1778645833333333,1
0.9589125860184712,0.5999144356187914,8.48612273128618e-06,0.1746527777777778,1
1.531895873434209,0.6861802225031007,4.065059466561048e-06,0.3212673611111111,1
0.4475777313647864,0.6227632303740175,3.238957415610047e-05,0.3155381944444444,1
1.619751010753778,0.8257306825124556,2.30070931804915e-06,0.2624131944444444,0
1.574988065030528,0.7420122939573826,7.862884445752566e-06,0.4651909722222222,1
1.351302591342381,0.8076789154535435,5.663768879047569e-06,0.23046875,1
1.12314371416165,0.6632627241640521,5.117943523090988e-06,0.16640625,0
1.411323946533471,0.7912145870686538,6.076042906664438e-06,0.2703125,0
0.670386546024977,0.3929166565139952,1.145197370271762e-05,0.1114583333333333,0
1.532758118861014,0.6937842210021751,3.787731030655613e-06,0.2649305555555556,1
1.667082080612959,0.8738844347327202,4.609848068075845e-06,0.3015625,0
1.486535766497383,0.7896109832151624,6.161516715117695e-06,0.2489583333333333,0
1.121604043263916,0.6278887301418139,1.186064019445032e-05,0.1855034722222222,1
1.699839063034914,0.7712525315273658,7.326331969131326e-06,0.4278645833333333,1
1.372053995844406,0.695520858543907,7.545422983300356e-06,0.2060763888888889,1
0.456639917390473,0.3896965291777011,1.830863955695693e-05,0.10546875,0
1.990177243608639,0.8920782475736405,4.891356085734843e-06,0.4315972222222222,1
1.556911547535447,0.5285882238007635,5.972454406971215e-06,0.3227430555555555,0
1.211816571899263,0.7690021094564988,8.463782452480316e-06,0.25859375,0
1.743083936289773,0.5967386151933189,5.768730770692459e-06,0.3209201388888889,0
1.386497034375322,0.7357188275591444,3.321701620081306e-06,0.1885416666666667,0
1.314432157265816,0.7169604920986276,6.288392968722899e-06,0.1750868055555556,0
1.233382219670215,0.7505465231765437,8.301812048335192e-06,0.2498263888888889,0
0.8312348943448821,0.593778874966951,1.364778555758642e-05,0.1145833333333333,1
1.53590440091712,0.8271653581331226,3.579492001392273e-06,0.2247395833333333,1
1.10540280647563,0.6802902630125416,1.106052896794422e-05,0.1870659722222222,1
0.8816328828618466,0.7180524759999849,2.088840023649644e-05,0.1572048611111111,1
0.3993705655652757,0.519398087814847,4.063369470907153e-05,0.14140625,1
0.327689694889581,0.5817281835193411,2.931172749556423e-05,0.1556423611111111,1
1.613365437179684,0.7810295238479557,3.456682004140328e-06,0.2348090277777778,1
0.8491640649547578,0.7568864138366911,1.909228565885315e-05,0.3375,1
1.333097368814345,0.785909920370042,1.110607831894837e-05,0.2756076388888889,1
0.0478121711174704,0.7767910671729057,8.390169993323515e-05,0.1799479166666667,0
1.48741841520918,0.8003550856485626,3.4860474825058e-06,0.2480034722222222,0
1.288467979480227,0.7912073820136148,5.263391736969936e-06,0.2306423611111111,0
0.961661523756716,0.6253931864026154,1.084829960382006e-05,0.2256944444444444,0
0.8786036399157974,0.491928662419657,9.503984721320344e-06,0.1559027777777778,0
1.256119149696187,0.7017235894844096,7.708612419352108e-06,0.2036458333333333,0
0.4630534534317155,0.3315465315340843,1.902521396522023e-05,0.0964409722222222,0
1.4444952364276,0.7555983665297228,3.661538383484741e-06,0.2607638888888889,0
1.234984598147914,0.7690684400676817,6.637367683676075e-06,0.2269965277777778,1
1.591145659001413,0.8365038661118616,4.084540175463508e-06,0.2883680555555556,1
0.759893840632701,0.4769084045936334,1.147130657513576e-05,0.2407986111111111,0
1.080883135778811,0.6351940603056206,9.311803178571086e-06,0.2263888888888889,1
1.344375842575924,0.7283944218398718,6.70459842268936e-06,0.3345486111111111,0
1.509461766193673,0.8466755665425487,6.704154216029785e-06,0.3092013888888889,1
1.791582975573311,0.8841458247005034,4.164582276130393e-06,0.3135416666666667,0
1.255721208908498,0.7519705148552515,6.83485857661728e-06,0.3090277777777778,1
1.392397441114792,0.7713652394798471,4.686443944228966e-06,0.2431423611111111,1
0.5077207237014795,0.558833431551443,2.011481947037281e-05,0.1024305555555556,1
0.7916949997322842,0.7273846359461963,1.265488536572128e-05,0.1557291666666667,0
1.117738897855278,0.709392399143684,1.071263598420843e-05,0.1872395833333333,1
0.6092222930276001,0.5353763153856507,9.13619973123928e-06,0.1135416666666667,0
0.5640171390827617,0.3844045322767595,1.399506859497638e-05,0.0897569444444444,0
1.654095129164366,0.5826039281301861,7.165639539897016e-06,0.2700520833333334,1
1.046560463201391,0.6191535991031273,1.05902417243821e-05,0.13984375,0
1.327991176953532,0.7673105054880507,2.479291961426873e-06,0.2416666666666667,0
1.42070078576633,0.7320256976960218,4.240405181821193e-06,0.2256944444444444,0
1.472506214407784,0.6902701516885427,5.313662012661032e-06,0.2181423611111111,1
0.5970449710021792,0.5355662437744311,1.114540401201905e-05,0.2121527777777778,0
1.503544951259836,0.775329450013375,6.767671871488625e-06,0.2376736111111111,1
0.5742030587479784,0.6545061243008763,2.630209015703273e-05,0.1636284722222222,1
1.442736777121129,0.8358569248019866,4.898030706473772e-06,0.3000868055555556,0
0.4188080124554859,0.5356138444198049,2.559462048345822e-05,0.1139756944444444,0
0.322028168315537,0.4033784100546907,2.665053591139751e-05,0.1520833333333333,1
1.681426102291334,0.8756112035480702,4.807722561042491e-06,0.3020833333333333,1
1.67663829686466,0.8296014052014743,9.778498691411203e-06,0.3363715277777778,0
1.949965516446702,0.7629592471395538,4.23313420252262e-06,0.4348090277777778,0
1.384301223490867,0.6699502442221906,6.724734953132844e-06,0.2730034722222222,0
1.161666628663088,0.5813768016268648,1.327056705077137e-05,0.2405381944444444,1
1.500396227155815,0.8846537016028085,5.601162634036846e-06,0.3526041666666667,1
1.53879458690353,0.8124777634203493,3.085936562078768e-06,0.2390625,0
0.3807112723972144,0.4336861225502271,1.833989843407013e-05,0.03828125,1
1.95774763682436,0.9533784505498614,2.965767452140434e-06,0.4026909722222222,0
1.132498563122541,0.6523748685853004,5.431410899586117e-06,0.1835069444444444,0
1.590200620094748,0.6667012480020458,3.908356859900151e-06,0.2450520833333333,1
1.833066984242022,0.9054969783071122,4.832736312741795e-06,0.3410590277777778,1
0.9750182314505236,0.6305392099308998,7.222513382976471e-06,0.2108506944444444,1
1.260614644487025,0.7309731471542712,5.647928432398944e-06,0.1693576388888889,0
1.636437264937425,0.6868312646494493,7.766475297327129e-06,0.3004340277777778,1
1.152422120611979,0.5965264916916173,6.068359826047239e-06,0.2493923611111111,0
1.216862490376239,0.7150440189452568,8.094233317245985e-06,0.23671875,0
0.8296707141696066,0.5963388192261485,9.741296840568583e-06,0.1573784722222222,1
0.6140591112701758,0.6250771573118983,1.768104189183868e-05,0.1521701388888889,0
1.37716812587639,0.7725855560754312,5.689045000457706e-06,0.2611979166666666,0
1.437193570599141,0.7178696129959032,6.061614103583872e-06,0.2730034722222222,1
1.396741624531396,0.7228372151818805,4.531761145208924e-06,0.2091145833333333,1
1.521217936768882,0.8234489486146184,4.153280256789567e-06,0.25234375,1
1.404209603779548,0.835801242167845,7.082122061369489e-06,0.2870659722222222,1
1.239117839479646,0.670856536215823,7.852827363392114e-06,0.1514756944444444,1
0.2732619139208604,0.5355702262572141,2.690840953786113e-05,0.0842881944444444,1
0.1276976926042446,0.8538231985414205,0.0001015791032746,0.1120659722222222,1
1.871806409575037,0.7862468248801912,3.483866048240065e-06,0.4042534722222222,0
1.129725077952034,0.7146592736183404,6.534257043972759e-06,0.2245659722222222,0
1.670842206774666,0.7978360122854222,2.955258150558798e-06,0.2730902777777778,1
1.439328579619812,0.8351415914028363,7.585199104305161e-06,0.2779513888888889,1
1.223465607251852,0.7851960831952142,1.54018497038038e-05,0.1932291666666667,1
0.1989183222845501,0.5490559349623604,3.761840284709804e-05,0.1643229166666667,0
0.6852541991488147,0.5910737604891848,1.138540623277601e-05,0.2212673611111111,1
0.2121894838762819,0.4159576439924008,3.253148073976426e-05,0.0552951388888888,1
1.619406295081681,0.6845681790022514,6.639610578636904e-06,0.2796875,1
0.567412688407173,0.5608729994705234,1.667474990116556e-05,0.15703125,0
1.173219181891203,0.6036999799213639,7.166196744007437e-06,0.1572048611111111,1
1.401320734607213,0.8129503220236795,5.190386281453127e-06,0.2496527777777778,1
0.5460605043634289,0.4201217838747815,1.089664256644817e-05,0.1168402777777778,0
0.5642921580693441,0.4709721456118998,1.334241510778129e-05,0.1659722222222222,1
1.216238054285107,0.5524585994687851,4.207077553340789e-06,0.2729166666666666,1
1.419626104479947,0.7403574173468505,3.280172709317984e-06,0.2041666666666667,0
1.971217829380459,0.7902863067016743,4.980832614971296e-06,0.5077256944444445,1
1.21323020716894,0.69093952344509,5.671091392384625e-06,0.1953125,1
1.594581220729901,0.8636143476106277,3.794182524264388e-06,0.2739583333333334,0
1.235412016401304,0.7291520837912866,1.155699995604961e-05,0.2254340277777778,0
1.353297938148285,0.7909345370938292,8.306691450188796e-06,0.2410590277777778,1
0.313873416305582,0.3905523534869074,1.768424045454213e-05,0.1510416666666667,0
1.093756707151488,0.6127543520159928,9.539708737731189e-06,0.2105902777777778,0
1.21639351909992,0.6656913433552188,5.40618211909732e-06,0.1942708333333333,1
1.760082399177433,0.8858952422994433,3.753530022057701e-06,0.3152777777777778,0
1.42767118568231,0.6477786800755139,3.645253083452064e-06,0.2140625,1
0.4681423465895532,0.3232575202409732,1.868148696158274e-05,0.0997395833333333,0
1.465420371375596,0.7557322399295512,6.142396693218963e-06,0.2213541666666667,0
1.616996373047813,0.6731935226857163,4.617865369624484e-06,0.2779513888888889,1
0.6239533755409029,0.5665452074474817,2.196107743765246e-05,0.2030381944444444,1
1.703047125387308,0.7413427710429035,7.11235474832707e-06,0.3832465277777778,1
1.567817303497975,0.6846820704814681,7.389369170271035e-06,0.2519965277777778,1
1.569747018812419,0.8383850116337177,5.164264026296688e-06,0.4163194444444445,1
1.199046238945713,0.654113529623884,7.155597369112238e-06,0.1941840277777778,0
1.115187779505036,0.6678301088305296,1.116117188544476e-05,0.1400173611111111,0
1.890962770900273,0.8099210742047268,4.879589990533938e-06,0.3831597222222222,1
1.53567575395182,0.760480626081258,3.188827697625908e-06,0.2042534722222222,0
0.4930615294568851,0.8309697336301816,1.726244823651979e-05,0.0986979166666666,0
2.097229879084339,0.8421695438442359,4.180995888414902e-06,0.4002604166666667,1
0.0675358522860912,0.6255944999178338,9.619087210640788e-05,0.1125868055555556,0
1.423196357979894,0.7728482803127348,4.792086880844919e-06,0.2077256944444444,0
1.661915953041566,0.760697435890324,4.858550627741726e-06,0.3860243055555556,0
1.502545194043663,0.8651875819752198,2.927898880168684e-06,0.2621527777777778,0
0.2989628031948904,0.4297344421713721,4.271739240312054e-05,0.0393229166666666,1
1.441686949291507,0.8412493909513372,3.474402849222903e-06,0.2787326388888889,0
1.033425218233492,0.5696723425652493,9.373046880902162e-06,0.1605902777777778,0
1.822549707651913,0.9307141190249404,4.012410956278899e-06,0.3488715277777778,1
0.6882545529555587,0.6065176236545319,2.371849733746979e-05,0.3703993055555556,1
1.220507750893999,0.7392509789910922,5.446194328126268e-06,0.2203125,1
1.195384342364658,0.7173763986570202,9.90874298531136e-06,0.1583333333333333,1
1.542670874465777,0.9147048119349844,4.14921322517962e-06,0.3013888888888889,0
1.809358121217344,0.8177363118877296,6.359155519129335e-06,0.3792534722222222,1
1.455026214614644,0.7746719217522513,6.201521687208583e-06,0.3522569444444444,1
1.848160347885925,0.8870704184253044,4.238332494010189e-06,0.3139756944444445,0
0.6639980270596425,0.6331687279029187,2.058952793518813e-05,0.1246527777777778,0
1.074111092463373,0.6949856689084838,1.177501268831891e-05,0.1411458333333333,1
1.892681551988299,0.848927077437312,4.92109183294965e-06,0.4063368055555556,1
2.026593123376917,0.8255308144373249,4.434625179972223e-06,0.5309027777777777,1
1.707706050867322,0.759672737546479,4.341489108349947e-06,0.3243923611111111,0
1.204508299162527,0.736971622456403,1.468623079160821e-05,0.2346354166666667,1
1.178224766544911,0.6236456711972662,1.118107734680883e-05,0.2217013888888889,1
0.3496295972400953,0.3935316242003341,2.663906866087891e-05,0.06015625,1
1.054544543899557,0.6758329568449114,6.910904560742497e-06,0.2172743055555555,0
1.650827125184718,0.8619741199541626,2.705445708428623e-06,0.2547743055555556,0
2.104240718835031,0.8018413927294085,4.616576328390509e-06,0.4174479166666666,1
1.348155932057688,0.715605249608936,7.3028589196594e-06,0.1799479166666667,0
1.410378912731689,0.5895182683298945,8.850028582390122e-06,0.1407986111111111,1
1.45534068379537,0.7635032497623259,5.015157419354916e-06,0.3177083333333333,1
0.1454787368044227,0.4188093039976524,3.400127332877953e-05,0.1164930555555556,0
0.4420545960068178,0.497233230771825,1.973992233539117e-05,0.1731770833333333,1
1.139553815708419,0.7078102383642284,9.593108164419336e-06,0.1512152777777778,1
0.4005094039434743,0.6230544078630539,2.916696181375337e-05,0.1186631944444444,1
1.597068932492965,0.8632858543808588,3.458364844304464e-06,0.2671006944444445,0
1.498524301797707,0.8285677473229955,2.853133725377543e-06,0.2624131944444444,0
1.496457775564134,0.7746760766257875,3.288808982847357e-06,0.2127604166666667,1
2.044840602861586,0.8254211614854746,4.267543889738776e-06,0.5006076388888889,1
1.278110184879846,0.5415745388067691,5.960472164518959e-06,0.18515625,0
1.363623249249705,0.791488208594529,5.568891511384649e-06,0.2717013888888889,0
1.514377014888296,0.7339335766534293,9.20652509773841e-06,0.2477430555555556,1
0.2958721489492667,0.3662159483391165,2.910617599458473e-05,0.0651041666666666,1
0.6347637681318965,0.9233796653461684,1.377298319344989e-05,0.1716145833333333,0
0.3374955249272086,0.4968022239547495,2.328995179782065e-05,0.2401909722222222,1
1.125221351118336,0.5394691692323312,6.409622737448681e-06,0.2028645833333333,0
1.245344859255322,0.6030664898462254,1.431822848705133e-05,0.2206597222222222,1
1.410258654535224,0.8071486122417525,4.582064752678918e-06,0.2803819444444444,0
0.3075115247837925,0.480129727557248,2.727835369421134e-05,0.0940972222222222,0
1.981267735271518,0.9344549566380876,3.164737868688961e-06,0.3979166666666666,0
1.605683659589846,0.7063237540077519,7.955748638929958e-06,0.3569444444444445,1
0.7017381027469132,0.4554866636641439,1.261522757660019e-05,0.1399305555555556,0
0.431993751445486,0.3703273390716244,2.161513645420237e-05,0.0795138888888888,0
1.35789842853754,0.6782550007049155,5.735571081654423e-06,0.23828125,0
0.2307318304980091,0.4941633126852536,2.075417552348823e-05,0.1586805555555555,0
1.534700310878333,0.8472473647926952,6.808587740296864e-06,0.2927951388888889,1
1.79268112371253,0.8084868126446656,4.02136609114167e-06,0.38984375,0
0.2481996548203415,0.6130856980634993,4.649403649263011e-05,0.2747395833333333,1
1.312432652318263,0.6804194310334265,8.188843003108876e-06,0.2606770833333333,1
0.8573435911948865,0.7569990906172844,1.488267149466414e-05,0.1389756944444444,0
0.2230826482683217,0.3798139253751008,1.273571426550176e-05,0.1475694444444444,0
1.674880473987696,0.7853266974241252,3.50381401616653e-06,0.2690104166666666,1
1.602026199672413,0.6803007849132493,4.487324408518553e-06,0.2848090277777778,0
2.005246190455612,0.8968515433160158,4.730998892565693e-06,0.4369791666666666,1
0.7303507115330762,0.7526225178101897,1.261806332022203e-05,0.1514756944444444,0
1.653878252998549,0.8038106440823222,2.690233030296819e-06,0.2427083333333333,0
0.8317016174493844,0.5912482549843947,4.097864960075749e-06,0.1662326388888889,0
