sample_entropy,shannon_entropy,rms,mean_rr,sdnn,rmssd,mean_hr
0.6607134600010235,0.8350685801880594,0.0002834699629434866,0.739453125,0.02366749134328299,0.02435886759231116,81.14104595879556
0.7229788464834068,0.8592554116049633,0.0002861583826920587,0.7272376543209876,0.02406244773072944,0.02495112409792392,82.50397877984085
0.7581542135392193,0.8355826858507687,0.0002758105056374406,0.7229420731707317,0.02113975342737601,0.02527815933777958,82.99420137058515
0.693020229407116,0.8012672080100857,0.0002757884647064111,0.7298018292682927,0.01784659980787819,0.02405626121623441,82.21409921671018
0.7014477592497601,0.7963430029315802,0.0002778451524624378,0.7108433734939759,0.0166941259618941,0.02155139560304679,84.40677966101696
0.6878346857953772,0.8775023688659244,0.0002790788529910588,0.7353395061728395,0.03260430339320463,0.02420614591379636,81.59496327387198
0.6038447671680156,0.8040967981237047,0.0002813741916997024,0.7771381578947368,0.01851699054144359,0.02576941016011038,77.2063492063492
0.5847646354039451,0.7807858979107173,0.0002827141274761431,0.7698863636363636,0.01809537078701944,0.02609643363918163,77.93357933579335
0.6589680652365634,0.8376084980247409,0.0002920229062187575,0.7580128205128205,0.02805631634617243,0.04405045255306544,79.15433403805497
0.8810002008204004,0.8301716166202067,0.0003041478585966553,0.7592147435897436,0.0159100397849878,0.0249288761005458,79.02902374670184
0.630148954924549,0.8301283790947939,0.0002750664173206056,0.7543512658227848,0.02318051475313863,0.02600157169805762,79.53854221289984
0.6117218332803268,0.7780915036837381,0.0002707976297488197,0.7480221518987342,0.0159900181419365,0.02181195126412852,80.21152829190903
0.587683133845945,0.7572518582093529,0.0002702428590466939,0.7496044303797469,0.01610701983504932,0.02293123080329196,80.04221635883904
0.6170161905330029,0.7773667253476453,0.0002728613830030529,0.7318672839506173,0.01893185825059459,0.02683681880830886,81.98207696362678
0.619978753185468,0.7711378606933587,0.0002701396688870355,0.7464398734177216,0.01571362663452627,0.02063204036792265,80.38155802861685
0.6124207801099637,0.752806390919228,0.0002711764917729505,0.74140625,0.01560545652768608,0.02332184014712607,80.92729188619599
0.6287992678723515,0.8787487759483645,0.0002979659535731374,0.73984375,0.02083170566558341,0.02332184014712607,81.09820485744456
0.7087718087885904,0.838479347620736,0.0002693996416746314,0.7532051282051282,0.02270613351811659,0.0249288761005458,79.65957446808511
0.7333156664610114,0.8094250334023455,0.0002710862356997822,0.7519778481012658,0.02070609545617469,0.02647870455426011,79.78958442924777
0.724983795016219,0.8363662187817481,0.0002693474409968556,0.7633928571428571,0.02331397177978096,0.02584906849589097,78.59649122807018
0.7789493044377492,0.8449726156690796,0.0002704426051704746,0.734375,0.02420614591379636,0.02305529607736994,81.70212765957447
0.84090873087204,0.8582170515050771,0.0002718906375741589,0.7636217948717948,0.0227061335181166,0.02849014411490949,78.57292759706192
0.7849922759478857,0.9415494060132064,0.0003340877668857183,0.752373417721519,0.08331601493119663,0.08091956971475141,79.74763406940063
0.588179835363829,0.916458643244472,0.0003889095329283287,0.74609375,0.05167483029423028,0.06943345552999247,80.41884816753927
0.5627618111692637,0.9165785081437499,0.0003581878479858621,0.7600160256410257,0.04260568194741719,0.044905881010739,78.94570374275172
0.5761962800166803,0.8162430880742744,0.0002452134818911026,0.774671052631579,0.01849872019605591,0.02282177322938192,77.45222929936305
0.6363456968232991,0.9448902798851955,0.0003145338013712337,0.7563291139240507,0.06528217166416533,0.08681623865885803,79.33054393305439
0.670122514644647,0.8195189103921194,0.0002613422290253926,0.7727272727272727,0.02054229015396715,0.02295277259367247,77.64705882352942
0.6419522476114177,0.804765043979231,0.0002607661488542952,0.7779605263157895,0.01935625377621681,0.0284128785353872,77.12473572938688
0.5764346828273489,0.7951558173655169,0.0002595161019398645,0.7820723684210527,0.01961654677940224,0.0284128785353872,76.7192429022082
0.6239336075693892,0.8424140804226231,0.0002627713606117678,0.7632211538461539,0.03224351407571281,0.02665008954445131,78.61417322834646
0.7082630403503415,0.9129965146832766,0.000262387383408772,0.7464398734177216,0.04008352069902974,0.02786111963255402,80.38155802861685
0.6030255664057799,0.9038277111544409,0.0003248988846954126,0.7767857142857143,0.05579139477538899,0.05922765651325934,77.24137931034483
0.6026391737176653,0.809388762232585,0.0002623762625357935,0.768262987012987,0.01907899232718045,0.0240463676269958,78.09825673534073
0.6061833072969919,0.7951278973379797,0.0002620034893295434,0.7779605263157895,0.01725014552911433,0.02282177322938192,77.12473572938688
0.6873224920639376,0.9370874011386132,0.0003165614558770176,0.7640224358974359,0.07433051822056805,0.07461685140092024,78.53172522286313
0.6176809073367955,0.9275625945107064,0.0004451687109720339,0.782483552631579,0.1169752232504134,0.1508223983144855,76.67892800840778
0.6794267531700231,0.9361307679293969,0.0003422659144557143,0.780016447368421,0.06809662416673182,0.1113365767990616,76.921454928835
0.6244336408920216,0.8284881582580355,0.0002800773306088282,0.7731331168831169,0.02538392170635047,0.03530442094352908,77.60629921259842
0.5781470669946758,0.8108090724846282,0.0002606138208053468,0.7875,0.02041241452319315,0.02790359550115167,76.19047619047619
0.7181394563311465,0.892893491238175,0.0002696269191618205,0.7644230769230769,0.03152614675145192,0.02826668855416534,78.49056603773586
0.7412778795224526,0.928873709683421,0.0003399129195936552,0.7384259259259259,0.06704976091648258,0.0808886194096549,81.25391849529781
0.8092701981639692,0.8095564183718074,0.0002868771114394035,0.74375,0.01668293476879892,0.02305529607736994,80.67226890756302
0.7397952544328866,0.8280170110180985,0.000286867068819278,0.7326388888888888,0.02083333333333333,0.02495112409792392,81.8957345971564
0.7077446506441946,0.8014854323992113,0.0002841020912854798,0.7278963414634146,0.01920671214688133,0.02621470290024566,82.42931937172774
0.7696349742309462,0.9092834352747182,0.0003452667861971798,0.7283950617283951,0.08078302046449216,0.1059162958130145,82.37288135593221
0.7042112026711271,0.8198533251459756,0.0002580319529156762,0.7515822784810127,0.02103597436757647,0.02347086300621284,79.83157894736841
0.651463171494283,0.8089155161251724,0.0002535482542083566,0.7731331168831169,0.01911349324564386,0.02509234589209269,77.60629921259842
0.6663011291700062,0.7937940144265159,0.0002520312956992057,0.7742598684210527,0.01936935150216098,0.02700308624336608,77.49336165693043
0.685194941188482,0.8057855191825757,0.0002510364523640701,0.780016447368421,0.01858534437498277,0.02393567769390845,76.921454928835
0.6810519709680481,0.8173230776861903,0.0002495555546043678,0.78875,0.01828592354790974,0.02354283760940263,76.06973058637084
0.6480643841999892,0.9186281014379518,0.0003083445242901621,0.79375,0.07052629533254483,0.1012615734126228,75.59055118110237
0.5892768163899372,0.9362417798614451,0.0003160235616526155,0.8129280821917808,0.08600937229365999,0.09840856056089158,73.80726698262244
0.5899772382886597,0.8033634495986202,0.0002560340820980346,0.7908333333333334,0.03497518961905552,0.05823723181023389,75.86933614330874
0.6192055578252937,0.8294032988403306,0.0002540533990786527,0.7820723684210527,0.027287269774732,0.02072890493972125,76.7192429022082
0.6140644785849599,0.9238324048393509,0.0003873519814627899,0.7620192307692307,0.06919848784417984,0.1035220857607677,78.73817034700316
0.7182334077761461,0.9003770359027339,0.0002928777267680703,0.8048986486486487,0.03514975007885947,0.03675778037107544,74.54354669464847
0.7457827538893451,0.8675224533368663,0.0002798910160300642,0.8198784722222222,0.02470148138043784,0.02431952426679807,73.18157755426151
0.7354076209291478,0.8477474967515398,0.0002804565238169466,0.8246527777777778,0.02182257828120926,0.02225215609113475,72.7578947368421
0.5721402962217929,0.9281910949928804,0.0003829216957896824,0.829225352112676,0.06692746434783665,0.08259531831249793,72.35668789808918
0.630939267426396,0.9029069218853771,0.0002913387033550384,0.840669014084507,0.05429276037010308,0.08242623867087817,71.3717277486911
0.6345687918450871,0.8092488223913253,0.000251320849206841,0.8172743055555556,0.02125850155600427,0.02848700902338804,73.41476367498672
0.5750971089019352,0.9224543580159135,0.0003691300852890629,0.807791095890411,0.09519031058325217,0.1227554557228404,74.27662957074722
0.7354683845477831,0.8956992838602834,0.0003305199940705358,0.7633928571428571,0.02778180371773512,0.03419510343140097,78.59649122807018
0.7789937350532821,0.8396979671555301,0.0002971543496124619,0.770698051948052,0.01716101827261848,0.02323099817734463,77.85150078988941
0.7408582015258677,0.8299826311843918,0.0002851908393486564,0.7584134615384616,0.02103651537311711,0.02804145238656607,79.11251980982567
0.6739120959495671,0.8168445569031654,0.0002820087697723479,0.745253164556962,0.01994392826891698,0.02740806310334466,80.50955414012739
0.6903396308968477,0.9128867341564236,0.0004338425793207644,0.737109375,0.05127613424741939,0.06790330173177112,81.39904610492846
0.571873954725795,0.8889596621481297,0.000330161816240297,0.8129280821917808,0.04494251426102944,0.02804773337049221,73.80726698262244
0.5026520479253493,0.8400411427181557,0.0003009170528797038,0.8415178571428571,0.02321857789990329,0.0246694634626745,71.29973474801061
0.5495953028411688,0.8802204620583491,0.0003298056833050388,0.8298611111111112,0.05409873767667668,0.08167548397835542,72.30125523012552
0.514531296286983,0.7927216217178557,0.0002997810546432384,0.8375880281690141,0.01626735793360592,0.02079609767652164,71.63426169206515
0.5420454057932287,0.9152298071514217,0.00036506147045874,0.8203125,0.05817267683252259,0.08150690694831751,73.14285714285714
0.6115790026913773,0.8812473251668523,0.0002597119474640939,0.8371478873239436,0.06357255167540875,0.06897285309660399,71.67192429022083
0.6210061377722984,0.9055412692964178,0.0002482482272599524,0.8120719178082192,0.056305421395402,0.05811435834484739,73.88508170795994
0.6262160296427397,0.944026175117482,0.0003243552280070359,0.7865953947368421,0.06883744399595916,0.08477912478906585,76.27809722948248
0.5843688562507029,0.8561991850371773,0.0002564474302575206,0.817208904109589,0.04898128335749247,0.04716346426113237,73.42063907805134
0.5301460825643985,0.8042387527176271,0.0002490105925986392,0.8233506944444444,0.03044079122413017,0.03439300104856743,72.87295730100158
0.4287663428572852,0.6418295130168307,0.000483131126304398,0.8015202702702703,0.04803805777216173,0.04296631764597467,74.85774499473129
0.5603639424295997,0.6590740338676814,0.0005199902828178684,0.8189212328767124,0.04711238524725207,0.06442352540027595,73.26711970726608
0.8984178841334556,0.8311290153647731,0.0002520448495018967,0.8176369863013698,0.02688410696593764,0.03125,73.38219895287959
0.279617345136595,0.9036961789065732,0.0012054061891618,0.8159246575342466,0.1242013919481944,0.157460588102406,73.53620146904512
0.5260122126516993,0.8432326398581659,0.0002677748700954414,0.8294270833333334,0.02703195246357643,0.02725321405002239,72.33908948194662
0.294540526974483,0.6374030242220152,0.001070832640492305,0.8116438356164384,0.1013569908061997,0.1405285162836671,73.92405063291139
1.569082517191305,0.9460713685159213,0.0008957440385426606,0.8713235294117647,0.1862341932634403,0.2298299988213222,68.86075949367088
1.549432165756852,0.9509776795272715,0.000923485042800646,0.8690257352941176,0.1901057713509244,0.2276315328305944,69.04283447911158
1.440693492536086,0.9542293987206539,0.0008580265553221146,0.8495535714285715,0.1496175236397864,0.1843024451936214,70.62532842879664
1.380302059870551,0.9500975538668094,0.0008707286250257301,0.8345070422535211,0.1796626679257027,0.2292140102611531,71.89873417721519
1.961837997905829,0.9758790719405314,0.0008602647727748218,0.8727022058823529,0.2046616210957634,0.2540483779877544,68.75197472353871
1.41038528313574,0.9225378430631394,0.0008469093608017608,0.8517857142857143,0.1510459916106106,0.2145692622373984,70.44025157232704
1.058595532478326,0.8706548289144342,0.001175768985017485,0.8641304347826086,0.1793855636625634,0.2275034340400162,69.43396226415095
1.625962388514784,0.9178410319124033,0.001108810177849631,0.7954166666666667,0.1843692324898298,0.2313287393340739,75.43216343635412
1.340212814642163,0.8788877706562772,0.0009109053879324467,0.79625,0.1447303527253354,0.213251354515517,75.35321821036106
1.397070647982082,0.9308880776719687,0.001167110708981657,0.829225352112676,0.1778495821313973,0.2429244260787998,72.35668789808918
1.159439184411941,0.8729648895021237,0.001219002881075761,0.8307291666666666,0.1850058358219936,0.2214993224006423,72.22570532915361
1.063335185543606,0.7883561335463782,0.001058124263853741,0.8327464788732394,0.1824509894298732,0.2389289718126049,72.0507399577167
0.6888630435890283,0.7582323742202717,0.001276973580870841,0.8073630136986302,0.1587567496197303,0.2361334497194095,74.31601272534463
0.8543656644174469,0.8433604386135775,0.00136332867927789,0.8573369565217391,0.2013652353765999,0.2854063795197792,69.98415213946117
0.4420004054797952,0.8813241724622078,0.001054583220919386,0.7563291139240507,0.1342852536291787,0.1568498102669214,79.33054393305439
0.6421413958290958,0.9184551158279153,0.0003564491120570511,0.765827922077922,0.05273163587123262,0.02658425966323127,78.34658187599365
0.4804873059381033,0.8457689240709118,0.0003410906639712714,0.8125,0.03188565830400012,0.03474391683366233,73.84615384615384
0.3027633805713831,0.6286255985378824,0.0007758184085904186,0.8397887323943662,0.08488444556214746,0.1267731382092775,71.44654088050314
0.4492454506287976,0.8597469401531981,0.0003426423564409489,0.8717830882352942,0.02893031385209034,0.03371785367896981,68.82445967316816
0.4587416599645741,0.851736964483996,0.000340023876064896,0.8745404411764706,0.03732059069081364,0.03457160533620601,68.60746190225959
0.4572205192616824,0.8896624912778852,0.0003395955861845836,0.8810634328358209,0.04012820739223404,0.0362888376067419,68.09952355743779
0.5162320380971859,0.9055439618866276,0.0003435467426991072,0.827024647887324,0.04715467795505585,0.02893187811789223,72.5492283129324
0.5431335325711499,0.8595773572506763,0.0005397271257085967,0.7977195945945946,0.07845756462657341,0.1016242238676996,75.21439915299099
0.5192698358936163,0.8569017918773268,0.0003278264523601977,0.8259548611111112,0.04225701220550579,0.02775331473668036,72.64319495533368
0.2587880932125578,0.8150810979542419,0.001167667781279611,0.8558035714285714,0.1243614109077216,0.163638708170146,70.1095461658842
0.4746442531135237,0.8153955455116219,0.0003060536076755527,0.8450892857142858,0.03824983743462854,0.03343790210377214,70.99841521394612
0.5901862248982994,0.9206449654051516,0.0003310615277218015,0.7985641891891891,0.06681511982969199,0.06583564529782344,75.13484928609202
0.5498089303969746,0.8783714298089177,0.0002876213402728453,0.8040540540540541,0.03956094063726476,0.02370354143819714,74.6218487394958
0.6759903773365064,0.9155780363371409,0.000300889533799161,0.7879166666666667,0.04740487551109297,0.02463843267874125,76.15018508725542
0.6727087415356571,0.8815156576102398,0.0004113212710647915,0.7559335443037974,0.05842658366340746,0.0743056803657391,79.37205651491367
0.4886576123976654,0.91566867062391,0.0003855194275165907,0.8181423611111112,0.06169762492036499,0.0536159481345448,73.33687002652519
0.465238190982223,0.8387438254111268,0.0003185763868195921,0.8486607142857143,0.0245697998318161,0.02712858538382597,70.69963177275118
0.4539014465712664,0.6985830295765603,0.0009929062672640362,0.8573369565217391,0.1247141501601062,0.1749392620437498,69.98415213946117
0.5133660403894579,0.8877975686732563,0.0004139203840117762,0.8181423611111112,0.05370556668573813,0.07472808690064925,73.33687002652519
0.3771794798647343,0.5758668101419302,0.0007073889722122512,0.8410714285714286,0.05970137206572904,0.07936069852902312,71.3375796178344
0.871455643987718,0.834304660272243,0.0005418698628840713,0.8496376811594203,0.07163245985423022,0.08038996178555101,70.6183368869936
1.178608259725836,0.8720960969736478,0.0003417431599267295,0.8616727941176471,0.03139496544715729,0.02981793322467278,69.632
1.028628368585506,0.900941158092767,0.0004239796190644684,0.8229166666666666,0.07529600153542167,0.06685940814684556,72.9113924050633
0.9657137090255722,0.7995587916803777,0.0005688441595942793,0.7715097402597403,0.05383519285321568,0.05182226234930312,77.7695949500263
0.8803306606122828,0.7902959913022409,0.0006834734051988294,0.7975,0.08829401640730437,0.1176581203191137,75.23510971786834
0.556757025170411,0.7772068710931243,0.0006555972755071724,0.7532051282051282,0.07415214936704664,0.1054640526250717,79.65957446808511
0.4833137731378313,0.8217253670287912,0.0003486266076252292,0.828125,0.02497828918392041,0.02990043631034998,72.45283018867924
0.4600929236598044,0.8468973688581463,0.0003450181885944616,0.8477678571428572,0.02583506481469694,0.02551551815399144,70.7740916271722
0.4567124634882347,0.8463967582435857,0.0003442805133021546,0.8504464285714286,0.02687855932766138,0.03364886887863534,70.55118110236221
0.470350223112221,0.873653809193661,0.0003432392746574936,0.8596014492753623,0.03175461620101106,0.03431646085035748,69.79978925184405
0.4103184863765907,0.734678408329425,0.0005762220018141818,0.8302951388888888,0.06002621427327155,0.06848540633070443,72.26346053319394
0.3287575923185611,0.5978976899024375,0.001187451728024853,0.8120719178082192,0.1224584461213639,0.1456006327968163,73.88508170795994
0.6040596557617561,0.7567076864429505,0.0004809867646411464,0.8163527397260274,0.04767305957175665,0.06017822920985075,73.4976402726796
0.6299716394951538,0.8895674070903449,0.0004281957617567905,0.8202054794520548,0.04846223184275653,0.03932205435036849,73.15240083507307
0.7880538182910505,0.8791813345228109,0.0003169873108219566,0.8362676056338029,0.03252876094524979,0.02302463742540647,71.74736842105263
0.807980884615852,0.7690007163460273,0.0006550217281219794,0.8446428571428571,0.08663015158283693,0.1121068007866102,71.03594080338266
0.4962563341188848,0.8426108523093031,0.000437208377385772,0.828125,0.078125,0.08665969748974482,72.45283018867924
0.5332403501281353,0.8841186522583541,0.000311599651772358,0.8415178571428571,0.04102530406931303,0.0216113773377539,71.29973474801061
0.4820052877053115,0.8775524563704861,0.0003209632215395851,0.8504464285714286,0.04416033880032153,0.04305872085918235,70.55118110236221
0.7421719612907863,0.9333527938953299,0.0003135462212172768,0.7713815789473685,0.07873291871645677,0.02931509849889644,77.78251599147121
0.6893352920499896,0.8234339295642132,0.0004148777845810451,0.7539556962025317,0.03699792073129722,0.02209708691207961,79.58027282266526
0.6604658760179206,0.8589918490825418,0.0003013301354643189,0.7759046052631579,0.02398652880926849,0.02338535866733714,77.32909379968204
0.566343651335185,0.8443122915675066,0.0002941388149662119,0.7702922077922078,0.0229508368759719,0.02120690289182176,77.89251844046365
0.5342095046854295,0.8178210118481498,0.000291318435125425,0.7845394736842105,0.0266223915398662,0.03145764348029479,76.47798742138365
0.515279922602501,0.8683882735985272,0.0002875485169129186,0.8056506849315068,0.02891377532665802,0.03435131759966906,74.4739638682253
0.5397758254170586,0.8832921007039064,0.0002862391091487013,0.8154965753424658,0.03589769741992573,0.03294039229342062,73.5748031496063
0.5540378652899647,0.9089923484322473,0.0003195570163757074,0.8057432432432432,0.05443541569027709,0.03391859210537724,74.46540880503144
0.6391221163145901,0.924371483949707,0.0003129453271113274,0.7670454545454546,0.04348407544148985,0.02729965900114775,78.22222222222221
0.646686116280794,0.8580175119748386,0.0002801973208665424,0.7559335443037974,0.02539051667069812,0.02740806310334466,79.37205651491367
0.7151438894030231,0.8888300585106319,0.0003443274005830537,0.7282774390243902,0.06450463216134693,0.06430645547726435,82.3861852433281
0.714011204715039,0.9010486659075786,0.0002795260406582874,0.7280092592592593,0.03236604503266102,0.02567449488305466,82.41653418124005
0.7104458327151807,0.8607555015071434,0.0002736186732823662,0.7310956790123457,0.02536339492884815,0.02395267143243108,82.06860158311345
0.6036403970197527,0.8742143914346185,0.0002725111167760585,0.764823717948718,0.03308868011210894,0.03000777767145079,78.44944997380827
0.6716898004330454,0.892097229527343,0.0002738827955899081,0.754746835443038,0.03553967950192437,0.02694739057820551,79.49685534591195
0.6410139080503413,0.9034833696961744,0.0002729202427859071,0.7548076923076923,0.03645613194255553,0.02849014411490949,79.49044585987261
0.5891900800229395,0.8977989365259816,0.0002696836828044739,0.78625,0.03954164471372766,0.03309582473462272,76.31160572337043
0.5798737991756634,0.9142879147381548,0.0002687708983461469,0.7975,0.04602988159880492,0.04551808557996332,75.23510971786834
0.3590450463225937,0.5387999607102351,0.0009013888092567289,0.8023648648648649,0.1085098637096141,0.1565493707411565,74.77894736842104
0.591482110805121,0.9161930992566737,0.0002666881611730242,0.8044763513513513,0.05290864399755806,0.04233903846430847,74.58267716535434
0.5973162278667062,0.9211791752847436,0.0002676445295297089,0.7994087837837838,0.05239380466657996,0.04553595410703894,75.0554675118859
0.6100137916435752,0.9127019940514223,0.0002677210762548948,0.7951858108108109,0.04931485064980787,0.03939286667920322,75.45406266595857
0.6422750261844443,0.9161182487007503,0.0002701952522747224,0.7845394736842105,0.05354875196085429,0.04704829079431756,76.47798742138365
0.668369368262988,0.9035318407794598,0.0002717197660489191,0.7660256410256411,0.0441214740318468,0.03263956049169334,78.32635983263597
0.7178857375762876,0.918523077039582,0.0002870178548034946,0.743359375,0.05627034137411443,0.03753953612062753,80.71466106148186
0.6675978910536826,0.8956619280817747,0.0002755160717740307,0.7636217948717948,0.04379283148057599,0.04076057547418845,78.57292759706192
0.6712127812199183,0.884518736428594,0.0002740330467636014,0.7511867088607594,0.03897515169858735,0.02917811130774539,79.87361769352292
0.6324493968476091,0.8868363353769287,0.0002706408950849498,0.7579113924050633,0.04703121502437295,0.04231270002414562,79.16492693110646
0.5939630444885304,0.9032522418148884,0.0002695096741344292,0.7945833333333333,0.05686546012788039,0.04860273147423668,75.51127425275301
0.7207333685424197,0.9291676651461308,0.0002784815265623204,0.74296875,0.05589624002057295,0.03426875121924611,80.75709779179812
0.5433632190226119,0.8830678957138228,0.0004126747168439851,0.746484375,0.04528386757013336,0.03602725102551812,80.3767660910518
0.6893996998228431,0.7775713471811322,0.0009983116584653638,0.7743506493506493,0.14286175464811,0.2082476523371809,77.48427672955975
1.2812578863205,0.8491376043326043,0.0007518174815955118,0.7551424050632911,0.1432857786826616,0.1543960524937119,79.45521215295967
0.6126210263594042,0.6560188727086074,0.0007723396180329094,0.7496044303797469,0.1315993007632807,0.1534198822070016,80.04221635883904
0.5256804753723009,0.8602994381265892,0.0005607070933008923,0.7391975308641975,0.0849326413939322,0.07859235212474558,81.16910229645094
0.6559473115627303,0.8760656480181787,0.0002794231303107447,0.746875,0.03372973928894204,0.03222375293420301,80.33472803347281
0.5815237035421051,0.8766895153144483,0.0002752983755005348,0.780016447368421,0.03183691831258117,0.03166392531993888,76.921454928835
0.587778046160172,0.896919181120778,0.0002754954966138565,0.780016447368421,0.04037778700512746,0.03186887195995491,76.921454928835
0.6058764704489041,0.8844055720952444,0.0002748165767478765,0.7686688311688312,0.03462304993707981,0.02799678376735066,78.05702217529038
0.5769492839903206,0.9014380818213406,0.0002724941146636069,0.7951858108108109,0.03883528237022383,0.025862684018824,75.45406266595857
0.6110716261087846,0.9164135624299983,0.0002732098396444803,0.7985641891891891,0.05367164403100799,0.03956229914576035,75.13484928609202
0.617021512563465,0.9050844255024808,0.0002748628125990481,0.7686688311688312,0.04281223050078115,0.03265745008497497,78.05702217529038
0.6727020714100268,0.9131239680849373,0.000277776642905214,0.7580128205128205,0.05930028561563587,0.03125,79.15433403805497
0.7507143116394981,0.9182200307931123,0.000287374529918148,0.7104668674698795,0.04089902293373575,0.0260543668218555,84.45151033386327
0.658890763037854,0.8723306074627404,0.0002867538616736789,0.7384259259259259,0.02964409369181875,0.02773162398327945,81.25391849529781
0.6261846186419867,0.892268553630372,0.0002864218232723249,0.754746835443038,0.03588581781658774,0.02763551980926368,79.49685534591195
0.5734849578564527,0.8941125676816091,0.0002825077036170557,0.7755681818181818,0.04114066849829281,0.03186080695363572,77.36263736263737
0.5984945864175051,0.885105789770381,0.000284133136557441,0.7632211538461539,0.03376099015670226,0.02826668855416534,78.61417322834646
0.5861387240703146,0.8858098236827269,0.0002808867270707762,0.7808388157894737,0.03910143488978059,0.03423265984407288,76.84044233807268
0.6915176977274906,0.933001144190453,0.0002915054514243741,0.7496044303797469,0.06079430206784218,0.03466876226407682,80.04221635883904
0.7233579394878304,0.9141213419784036,0.0002741039291393368,0.7337962962962963,0.04583099507690586,0.03045873232752801,81.76656151419559
0.6296645351634788,0.9050984345610817,0.0002642090027616866,0.765422077922078,0.03823129497104118,0.03206182350266106,78.3881230116649
0.6346416767751946,0.9015692538417632,0.0002640296377763377,0.7702922077922078,0.04412703772928813,0.03860754800758389,77.89251844046365
0.6621041983051439,0.874984339466436,0.0002645101606280927,0.7539556962025317,0.03863239113449318,0.03281345389333858,79.58027282266526
0.6568734766703371,0.9060918564055609,0.0002641321787409708,0.7511867088607594,0.04143485561763765,0.03281345389333858,79.87361769352292
0.6361257362980766,0.9073055740743796,0.0002614855954929019,0.7694805194805194,0.05012134247163289,0.04849185193357095,77.9746835443038
0.6530206008451036,0.8969756034273101,0.0002619340760878108,0.7644230769230769,0.0435355054718145,0.03835603035945019,78.49056603773586
0.640176113101198,0.9009741747476234,0.0002621825466214213,0.773538961038961,0.04423887461828101,0.03926755390234645,77.56558237145855
0.7362161032686907,0.920351102908145,0.000285658135146193,0.7191310975609756,0.06182830802460636,0.03384303591947557,83.43402225755167
0.8267428702318057,0.9146142349234883,0.000304850900931345,0.7034970238095238,0.133847424987058,0.1360859656990425,85.28820729772606
0.8975585208575443,0.8462567601294044,0.0002940659222265408,0.6657303370786517,0.02217367051102099,0.02355557379513779,90.12658227848101
0.9060968532836186,0.9003190150343866,0.0002833215922809575,0.6936773255813954,0.03081815254956752,0.02273771484715622,86.49554740701937
0.8495180525566336,0.8777550573247133,0.0003004813996782125,0.6963235294117647,0.02472819370705917,0.02434980382731186,86.16684266103485
0.9883539771645516,0.92134819651753,0.0003432007963005903,0.6828304597701149,0.08308990158025341,0.1073578528826904,87.86954234613361
0.965512522521482,0.9313138867387087,0.0003039915169452524,0.7259908536585366,0.1836688614832127,0.1911299853405956,82.64566929133859
0.8284075336965296,0.8590356046374091,0.0004145891578817426,0.690406976744186,0.1216509855155577,0.1378088109750351,86.90526315789474
0.6106379402224134,0.863966489287199,0.0002976033102527414,0.7548076923076923,0.03359656296993049,0.02467318856099134,79.49044585987261
0.515729079404578,0.8205965334890455,0.0003000398195298246,0.7808388157894737,0.02294908924732866,0.02525907427704613,76.84044233807268
0.524805598129098,0.8236589293787362,0.0003051441229470724,0.7755681818181818,0.0269939758901232,0.03020455209244565,77.36263736263737
0.5361775718383512,0.8448841603852495,0.0003080033329543979,0.7751623376623377,0.02894895211059579,0.03285359268986543,77.40314136125654
0.5089764186313627,0.8256990829800541,0.0003066319641817009,0.7920833333333334,0.02771381524719315,0.03269464839669917,75.74960547080484
0.6090823184924106,0.9331686446077817,0.0003075695831691942,0.78875,0.07853475875899368,0.07444898942918585,76.06973058637084
0.5237069393063294,0.8630064727424045,0.0002974766380625987,0.8103595890410958,0.02704043098861945,0.02899877272307303,74.04120443740095
0.540389881778463,0.8449518906949234,0.0003025974864792469,0.7857730263157895,0.02519656858528541,0.02975595178559521,76.35792778649922
0.6210050817824064,0.8980688266475536,0.0002922147623394436,0.7743506493506493,0.04794460852474793,0.02845204587501019,77.48427672955975
0.5268935406310123,0.809550278685753,0.0002785054215963573,0.7875,0.02224391302506523,0.02951250880009484,76.19047619047619
0.4213407594390376,0.6810198055345743,0.0005052280395614165,0.7922297297297297,0.0353823649757659,0.05654413205508609,75.73560767590618
0.5146847269109474,0.8096804967061059,0.001624979684118042,0.8708639705882353,0.1981434113444967,0.2629294195486293,68.89709762532982
1.089305465659698,0.866363606476075,0.001292721136997086,0.8268229166666666,0.1893669710321257,0.2674119161939782,72.56692913385827
1.220610573547254,0.8967808068069751,0.001307073336626596,0.8731617647058824,0.1803860584473754,0.2323215391964913,68.71578947368421
1.489938603378696,0.919973908191055,0.001464012353054109,0.8791360294117647,0.2083880114053343,0.2769941267764656,68.24882383690539
1.553171161604634,0.9480518389913083,0.00162369326162457,0.9038825757575758,0.2195137240295122,0.2674218074071804,66.38030382399161
1.041555849959064,0.9239148861968162,0.0017242206681402,0.8375880281690141,0.1759671869349567,0.2256871946332547,71.63426169206515
1.059651894002502,0.9234171810848775,0.001694190903835855,0.8375880281690141,0.1876920757901669,0.2592055169165965,71.63426169206515
0.9781768465228766,0.939839810839166,0.001737817134335475,0.8486607142857143,0.1918131672623235,0.2708159135980953,70.69963177275118
0.9045666169823818,0.9103993476445756,0.001380816637868765,0.8582427536231884,0.191205808435241,0.2721938630477961,69.91029023746702
0.7525461997890556,0.9253145611973356,0.0008238323211100486,0.7853618421052632,0.1546249462554519,0.1852293060866269,76.3979057591623
1.002899132539431,0.9066824236022574,0.001386054007860492,0.8340669014084507,0.191103255207655,0.2750050730051564,71.93667546174142
1.114913218425921,0.9208482409380253,0.001443847792160035,0.8555253623188406,0.1931589753423421,0.2600794385149185,70.13234515616729
1.052648766115631,0.9248086692269526,0.001537088404733012,0.8495535714285715,0.1902545329517104,0.2356021617540646,70.62532842879664
0.9793085647180874,0.8988548023917904,0.001286918277599491,0.8224826388888888,0.1648522977714786,0.2361071555638471,72.94986807387863
1.012766682560762,0.8684342674911267,0.00120407961822083,0.8172743055555556,0.1495671309686203,0.2160930188175688,73.41476367498672
0.4170726482094414,0.9183645712758686,0.001006904170776072,0.7916666666666666,0.1359125535858341,0.1785593625267125,75.78947368421053
0.5352569216320475,0.8644492356046324,0.0002779484475135266,0.7875,0.03145764348029479,0.02790359550115167,76.19047619047619
0.6052900432418219,0.920257917203349,0.0003448214861024463,0.735546875,0.05180901064471676,0.02410379388699703,81.57195963887413
0.7175985050632938,0.9072731724147048,0.0003495261305134875,0.745253164556962,0.03448042220307106,0.02293123080329196,80.50955414012739
0.5166954424254981,0.8197725367849305,0.00035010204975176,0.7985641891891891,0.01999121685564971,0.02426134814264513,75.13484928609202
0.5170535421775005,0.8559139462710206,0.0003542118058733646,0.7941666666666667,0.02556310275029661,0.03039367266122733,75.55089192025183
0.4924559914693413,0.8432508192258718,0.0003514855647362876,0.8065878378378378,0.02603215372875413,0.02712501183637138,74.38743455497382
0.597384575688446,0.9000370302391197,0.0003492154957970849,0.7531645569620253,0.03933879712168297,0.03125,79.66386554621849
0.5676997951647881,0.8687749695571375,0.0002840744916551619,0.7711038961038961,0.04136027861557556,0.02634147595073514,77.81052631578947
0.5350138764830499,0.7990532935399078,0.0002783392410248147,0.78375,0.01960548392669765,0.02436915210515795,76.55502392344498
0.553014316165381,0.8288943210799404,0.0002797345596324817,0.7731331168831169,0.02383794668115002,0.02912159738425292,77.60629921259842
0.6006796812505154,0.8438033440886341,0.0002817225787931059,0.7507911392405063,0.02982290636862462,0.02694739057820551,79.91570073761855
0.5705968725954254,0.8850227100894186,0.000276519083502119,0.7580128205128205,0.03409923530601476,0.02543254063943717,79.15433403805497
0.5467234442940353,0.8453089052568448,0.0002766491940399121,0.7763798701298701,0.02418776692492101,0.02377768469539632,77.28175640355462
0.5774691225915322,0.8378716235025514,0.000278431307237737,0.7666396103896104,0.02285014327964164,0.02323099817734463,78.26363155108523
0.5824910324324951,0.8688614973666021,0.0002805442946093396,0.7596153846153846,0.02708997035957847,0.02252343656738897,78.98734177215191
0.5243281371543163,0.8404114228166858,0.0002750906151352726,0.8053209459459459,0.02492985159315108,0.02662726291110272,74.50445726271631
0.5139935820640674,0.8537755807663249,0.0002728645326427619,0.8184931506849316,0.03000853111014021,0.0339541791937638,73.30543933054393
0.6140742688970403,0.920299449273667,0.0002830306861446303,0.7612179487179487,0.04639831311475457,0.02415369483176381,78.82105263157895
0.5557409468597251,0.867125735810625,0.0002783739508353316,0.7775493421052632,0.02821035351816432,0.02282177322938192,77.16552088841883
0.5599731388811559,0.8755333683834148,0.0002801072167247226,0.7767857142857143,0.03291593765583054,0.02845204587501019,77.24137931034483
0.5716608751394414,0.8499487815918387,0.0002791220258553644,0.770698051948052,0.02598036651506367,0.02457492236428279,77.85150078988941
0.5745503815102491,0.8752913101180433,0.0002762968695538903,0.7767269736842105,0.03194295330493742,0.02310528438835295,77.24722075172049
0.5942257913679049,0.8550026404794562,0.0002788872130701853,0.7731331168831169,0.034675339875477,0.02955954071646617,77.60629921259842
0.6400168126941195,0.8781543820323032,0.0002801934498757448,0.747265625,0.03989541686847469,0.02410379388699703,80.29273392577103
0.6555085683104988,0.896913047753787,0.000336991483166982,0.725609756097561,0.03781133156955019,0.02223307026886406,82.6890756302521
0.7509206398124919,0.9276145295151446,0.0003288835062255008,0.7087053571428571,0.04317239736127783,0.02520622771583742,84.66141732283465
0.5789488022688437,0.820409566073534,0.0002881664178669746,0.7579113924050633,0.02017792839376083,0.02293123080329196,79.16492693110646
0.6130972767107444,0.8623988025653174,0.0002877825425620892,0.7507911392405063,0.02982290636862463,0.02981479960759464,79.91570073761855
0.5371117415299848,0.7946847338179382,0.0002772880608392751,0.7796052631578947,0.01889658765308562,0.025,76.9620253164557
0.5855856414813652,0.8624457496987878,0.0002797567715209666,0.7660256410256411,0.03347211309968818,0.03084148570123917,78.32635983263597
0.922627511200447,0.9225681023897176,0.0003363428972687044,0.688953488372093,0.0932529187119437,0.1226806890695852,87.0886075949367
0.6838246591447261,0.9065681217071663,0.0003784969130321966,0.6974264705882353,0.0362575311351151,0.02551551815399144,86.03057459146021
0.6826216616738429,0.8016923972582688,0.0004179074540307502,0.7183689024390244,0.07230516530154098,0.08023763894646765,83.52254641909815
0.6844238348119844,0.9063522231941231,0.0003035628717154448,0.7217987804878049,0.04462585722044038,0.02083333333333333,83.12565997888068
0.5309181989904894,0.8049644623040942,0.0002863274569327629,0.7644230769230769,0.02435686563072222,0.02735461866555011,78.49056603773586
0.5442308272907438,0.8382267184306819,0.0002859245525234258,0.7660256410256411,0.02774565655958459,0.02518196762579314,78.32635983263597
0.5470465754899181,0.8674117528121866,0.0002874724768017115,0.7767269736842105,0.02854400393389573,0.02626983377691352,77.24722075172049
0.5802749035987157,0.8167116002053736,0.0002908599714866766,0.7555379746835443,0.01910236782855955,0.02209708691207961,79.41361256544502
0.6318692569387188,0.8692065856226181,0.0002962453229666452,0.7484177215189873,0.02626296308971176,0.02502002403204487,80.16913319238901
0.5555627091935618,0.7833666698962534,0.0002825281192205426,0.7650162337662337,0.01716101827261848,0.02209708691207961,78.42970822281167
0.5908220853366486,0.871827726063043,0.0002864833572686237,0.7556089743589743,0.02489138552405299,0.02166234763812097,79.40615058324497
0.5339195503480755,0.8294389380705222,0.0002768894387266901,0.7755681818181818,0.0329209412186254,0.03362672417806065,77.36263736263737
0.5148323912442481,0.8564704113021512,0.0002736984967931854,0.7985641891891891,0.02626743503392565,0.02398406648601274,75.13484928609202
0.6299722302806278,0.865528557817336,0.0002799827403723503,0.7368827160493827,0.03361577301048143,0.02125229766989913,81.42408376963351
0.5878677814161704,0.8047559034950812,0.0002777274286993196,0.7511867088607594,0.02016241287559281,0.02320261576213183,79.87361769352292
0.6837070572999787,0.8845432490298644,0.0002852546170522892,0.7248475609756098,0.03500293446099096,0.02905069536576651,82.77602523659306
0.6087431190930582,0.8680431804962315,0.0002885976170767647,0.7345679012345679,0.02826118298119203,0.02209708691207961,81.68067226890756
0.5974794869906614,0.8434982002758026,0.0002853895548287079,0.7448575949367089,0.02457630469463461,0.02425781330644327,80.55231014338821
0.6553790537619463,0.8847551219202167,0.0002889145984854581,0.7210365853658537,0.03039238115453794,0.02329237476562281,83.21353065539111
0.6616219331953913,0.8630322953884711,0.0002836426986807302,0.7280092592592593,0.02753559549391277,0.0234375,82.41653418124005
0.6205954130294056,0.8450216126756172,0.0002805464914884211,0.742578125,0.02382172045076457,0.02654446055349306,80.7995791688585
0.6895933438245109,0.888462068218969,0.0002827982780263786,0.7280092592592593,0.04539044340538791,0.02395267143243108,82.41653418124005
0.6884637542654857,0.8847246311312975,0.0002835387061092286,0.7326388888888888,0.04419417382415922,0.02209708691207961,81.8957345971564
0.5622140064825969,0.7243538695449073,0.0002803696466620158,0.7674512987012987,0.01551790121291004,0.02584906849589097,78.18085668958223
0.5966384887734432,0.806021016767882,0.0002806163663428815,0.7580128205128205,0.01966000664484823,0.02136760808618212,79.15433403805497
0.568893032121129,0.8262715188613285,0.0002781366927426474,0.7702922077922078,0.02062231496089692,0.02377768469539632,77.89251844046365
0.5751903540022026,0.8023280346525153,0.0002797335488015236,0.7600160256410257,0.02151930929807017,0.02543254063943717,78.94570374275172
0.5561522144809222,0.8573241642382687,0.0002766487455945537,0.79,0.02774511969097749,0.02594294350237782,75.94936708860759
0.6468783120598426,0.8856662949449169,0.0002834512268297551,0.7341820987654321,0.03545186730759303,0.02519455546343297,81.7235943247504
0.6114704251354438,0.883902139811699,0.0002832992119832524,0.740625,0.034375,0.02607460996467879,81.0126582278481
0.5852725278807448,0.8311345341946246,0.0002811563943583408,0.7572115384615384,0.0264423076923077,0.02568066886291619,79.23809523809524
0.5745206285087592,0.841027089465521,0.0002802049612762564,0.7535601265822784,0.02435244299307181,0.02575969135525402,79.62204724409449
0.5729038131130179,0.8540893916710063,0.0002789095919262988,0.7507911392405063,0.0289820555126807,0.02717870289446575,79.91570073761855
0.545996982808473,0.883630241598989,0.0002758706899419463,0.7779605263157895,0.03384722965009321,0.02447362525931402,77.12473572938688
0.6217442185938875,0.8557117940071107,0.0002805605898438519,0.7330246913580247,0.02600663510239617,0.02660841619676,81.85263157894737
0.680411944124199,0.8974531075653805,0.0003112778100924099,0.7286585365853658,0.03807925608779511,0.01994639807825704,82.34309623430963
0.8148837922516035,0.9174074087982453,0.0003580911047697436,0.7094494047619048,0.04768149504665083,0.02497174608251571,84.57262716308338
0.6272386530546744,0.8716782237915324,0.0002796764980672104,0.7318672839506173,0.04045226737567317,0.02495112409792392,81.98207696362678
0.7669429604469475,0.8799380169928175,0.0003241476847705956,0.6970588235294117,0.03490517926887624,0.02619005343273518,86.07594936708861
0.6454469684820793,0.8371822437912676,0.0002823244612227991,0.741796875,0.03035586057887957,0.02461129783275677,80.88467614533965
0.5951292252558544,0.7974896563063373,0.0002809338235794823,0.7592147435897436,0.01741291170841405,0.02195313041606903,79.02902374670184
0.6580926437434134,0.8577496555415142,0.0002794967204977866,0.7436708860759493,0.02504927246675247,0.02123019439021117,80.68085106382979
0.5496222222522689,0.8292262232651721,0.0002776570687413089,0.7857730263157895,0.02361715539601049,0.02886751345948129,76.35792778649922
0.5732755570641892,0.8862489538950645,0.0002777923872459877,0.7820723684210527,0.03511233888192302,0.0284128785353872,76.7192429022082
0.5505784583789421,0.8806691357136139,0.0002757095081744469,0.7989864864864865,0.03170325064041125,0.0261200304967411,75.09513742071881
0.5412797435340269,0.8722918883581491,0.0002737257321663078,0.8177083333333334,0.02991959711738557,0.02966954145484633,73.37579617834395
0.5561286681709364,0.8967475120113573,0.0002736742242228446,0.8211805555555556,0.0372758863777498,0.02896581581650158,73.06553911205074
0.5663130871750915,0.8837721251797352,0.0002755421006946585,0.7947635135135135,0.03671801540419621,0.02903079081024995,75.49415515409139
0.5706871433511653,0.9039849436777069,0.0002749338682418794,0.7972972972972973,0.03987524200713809,0.02761379010765435,75.2542372881356
0.5920175943759987,0.9008174547383287,0.0002780861992140443,0.7755681818181818,0.04525116839209856,0.03324240613718378,77.36263736263737
0.6358780138988814,0.8848603379005693,0.0002807068088048936,0.74765625,0.04127337169335091,0.02856330411160711,80.25078369905955
0.586713606630855,0.9106047326638892,0.0002789792342887774,0.7719155844155844,0.04062497972805909,0.02799678376735066,77.72870662460568
0.5319137698885186,0.8478268688469317,0.0002746763798064527,0.7933333333333333,0.03099619152232881,0.03125,75.63025210084034
0.543677314033053,0.8797955817720674,0.0002730077912980113,0.8070101351351351,0.03856802167505723,0.0337208143721027,74.34850863422292
0.5272743617695241,0.8880819674593751,0.0002709669005549465,0.8203125,0.03561144357077433,0.02596084877299054,73.14285714285714
0.5547732785698075,0.9005557004638078,0.0002748827538515513,0.7908333333333334,0.0381790372965177,0.02516835207052591,75.86933614330874
0.5774389359668012,0.8780169878132927,0.0002765601315939747,0.7727272727272727,0.03790245472763162,0.02999108968554353,77.64705882352942
0.68238760133991,0.8959800172046806,0.0002797027677591177,0.7142319277108434,0.03823714807186165,0.02099152340536648,84.00632577754348
0.6890663641041096,0.8339902462414553,0.00027973925347661,0.7079613095238095,0.02481987173232281,0.02351580793618553,84.75039411455596
0.696377739671385,0.8671622037075839,0.0002805014296243406,0.7119728915662651,0.0283056417608622,0.02262962323064562,84.27287149656266
0.6027228999504127,0.8114627537040544,0.0002781676229175415,0.7259908536585366,0.0240574910092784,0.03027013155236579,82.64566929133859
0.5664956676600756,0.7246505707316778,0.0002755576885986784,0.740625,0.01739926363384382,0.02856330411160711,81.0126582278481
0.6168475463549062,0.8321315341740978,0.0002750632069770932,0.7359375,0.02609889545076573,0.02461129783275677,81.52866242038216
0.564848459852736,0.7963922128871641,0.0002708985751437716,0.7503955696202531,0.02358205468479253,0.02939187322268626,79.95782814971007
0.5509474373918494,0.8605102859401446,0.0002686482407407992,0.780016447368421,0.0322379959178585,0.02886751345948129,76.921454928835
0.595985780495116,0.863581517796697,0.0003500073421343063,0.7310956790123457,0.06301466574229381,0.02614562582918986,82.06860158311345
0.7078509347434744,0.8852018125057927,0.0002816074026674956,0.7023809523809523,0.03780757742831101,0.0242547039283229,85.42372881355932
0.5973365590287631,0.8063700595089768,0.0002717796210518806,0.7326388888888888,0.01964185503295965,0.02591113117465156,81.8957345971564
0.5131676006123678,0.6830925658770994,0.0004939399580614088,0.7153614457831325,0.02426054773130574,0.03328009595216585,83.87368421052632
0.3014251201053902,0.8675108328444753,0.00122672462572818,0.7484177215189873,0.1497376012994391,0.2069565887992839,80.16913319238901
0.7139308145183284,0.8396139374068591,0.000286019704004985,0.7149849397590361,0.02444681186859628,0.02390912673987518,83.9178515007899
0.6075916771426222,0.8150333111112963,0.0002786683641514491,0.7539556962025317,0.02130942025499309,0.02237858981373228,79.58027282266526
0.6602101645697136,0.8787847898411565,0.0002800567165244733,0.7341820987654321,0.03071433524304806,0.02209708691207961,81.7235943247504
0.6616179219590752,0.8407290080659556,0.0002779080842492403,0.7318672839506173,0.02398810425418181,0.02181912506838897,81.98207696362678
0.602115827982274,0.7869961366133276,0.0002762664446211977,0.7488132911392406,0.01753939816249633,0.02093325397053386,80.12678288431061
0.5932763406320287,0.7655981782710164,0.0002754463996273472,0.7612179487179487,0.01936385572691438,0.02252343656738897,78.82105263157895
0.666439650313987,0.8783629728527448,0.0002769108758416812,0.7314814814814815,0.02937170726955908,0.02317562027217395,82.0253164556962
0.5678405105211961,0.7571566258612298,0.0002736457324749861,0.7636217948717948,0.02270613351811659,0.02804145238656607,78.57292759706192
0.6323016407179686,0.8610690895034145,0.0002756338539136924,0.74375,0.03840064289826409,0.02677629430501653,80.67226890756302
0.5420548760828802,0.737190937828124,0.0005054459307391528,0.7022058823529411,0.04276416477528042,0.03409654534937381,85.44502617801048
0.6402693138928015,0.7427427845644249,0.001462782994170891,0.8090753424657534,0.1856041167623426,0.2606249167332668,74.15873015873017
0.4498585774044935,0.7739791970561993,0.0008584850796019431,0.741015625,0.09338388799524988,0.1114601201599745,80.96995255666843
0.7005624498014559,0.8637206437939869,0.0003250237124385195,0.7221798780487805,0.02968894314567427,0.02405626121623441,83.08179419525067
0.7856703129211783,0.9004613536178658,0.0003124726346995963,0.6963235294117647,0.02900453371075885,0.0223586000019594,86.16684266103485
0.8521610280507135,0.85282413681046,0.0003105354765581311,0.6842672413793104,0.06357454210518755,0.0938105424667557,87.68503937007874
0.7294588264424513,0.8932596650650628,0.0002865683699403584,0.7206554878048781,0.0692518340895174,0.09722222222222222,83.25753569539926
0.5711220263290196,0.8982750377422198,0.0003674824062298211,0.7460443037974683,0.06374687581689031,0.08313277147014703,80.42417815482503
0.6311514497683398,0.8683980829213679,0.000371764828766685,0.7263719512195121,0.06521558109948848,0.08143082916360121,82.60230849947534
0.6714316319984743,0.9128497381068545,0.0003415719495361456,0.7221798780487805,0.06288109756097561,0.0798611111111111,83.08179419525067
0.6480705955941656,0.8365423748951575,0.0002803305337451114,0.7372685185185185,0.02291549753845292,0.02291074734158622,81.38147566718996
0.6450052586486861,0.8242676165692306,0.0002783440934331862,0.7341820987654321,0.02361287615447431,0.02543565718140579,81.7235943247504
0.6009125385458335,0.8074500643862056,0.000280444564934019,0.7563291139240507,0.01949961636687696,0.02265659537756201,79.33054393305439
0.55738929109832,0.8108993663427931,0.0002798733602030835,0.7652243589743589,0.02047585310766128,0.02518196762579314,78.40837696335079
0.3742387499188218,0.7096205541499623,0.0008194504292238097,0.7503955696202531,0.1011080901713273,0.1229804810445492,79.95782814971007
0.2624828004723108,0.721330236779851,0.0009807508627279436,0.7739448051948052,0.1045456436031202,0.1437875380049548,77.52490823282642
0.702438283635949,0.8841885789545485,0.0002935798530936419,0.7183734939759037,0.03678215283680667,0.02289124606353843,83.52201257861634
0.6047518732365226,0.7901841261626397,0.0002821226023544413,0.75,0.01792764112915294,0.02373607891602343,80.0
0.5940613490837957,0.8898862583711737,0.0002748021672164394,0.7592147435897436,0.03542219544385213,0.02688698388807124,79.02902374670184
0.5572541602054248,0.8681961597869985,0.0002716430932350088,0.7767269736842105,0.03153812379777082,0.02525907427704613,77.24722075172049
0.5819630098878944,0.8460106835432546,0.0002750095746214728,0.7616185897435898,0.02507449555820329,0.01950586824788623,78.77958968963704
0.224145076152982,0.8163344494585898,0.001478395644865934,0.7804276315789473,0.1203892317910231,0.1652018966799917,76.8809272918862
0.487467490651209,0.8544810507112529,0.002215653451406226,0.8682065217391305,0.1898903762535079,0.2578612364808091,69.10798122065728
0.2317858270372262,0.8593175020942583,0.001322627773650346,0.7989864864864865,0.1292643680385743,0.1524363358015494,75.09513742071881
0.5849869287225169,0.838306040807231,0.0002764560280404296,0.7600160256410257,0.02852440306302494,0.02758546342202342,78.94570374275172
0.57567564572302,0.8681708920514712,0.0002763361257013293,0.7670454545454546,0.03285082198838971,0.02634147595073514,78.22222222222221
0.5304959493913013,0.7904958598387122,0.0002764339862227956,0.7849506578947368,0.02632542483965315,0.02975595178559521,76.4379256155055
0.4669115874130716,0.6898411839736345,0.000495958113802786,0.7754934210526315,0.03351592742157045,0.04649148667587791,77.37009544008484
0.3977637597197299,0.718213802336296,0.0006933332443877112,0.741796875,0.06642807545747788,0.07516135070127802,80.88467614533965
0.6008347003650356,0.7977561414518828,0.0002676640436132009,0.75,0.01988893210439325,0.02373607891602343,80.0
0.4952223429025912,0.6889106018602418,0.0004956123292254721,0.7322530864197531,0.02902506616327782,0.02519455546343297,81.93888303477345
0.2853320663605829,0.8795007679701212,0.001189607194271024,0.7349537037037037,0.1127388487211659,0.1424790966027999,81.63779527559055
0.643619509347945,0.8785093319171592,0.0002756932863063861,0.752373417721519,0.03096074672365426,0.02502002403204487,79.74763406940063
0.5600585753781209,0.847825362646606,0.0002753732068310214,0.7715097402597403,0.02580862515516988,0.02267113281593786,77.7695949500263
0.5773643167341916,0.858295258486347,0.0002716944216754234,0.7779605263157895,0.0266223915398662,0.02253469547164993,77.12473572938688
0.2581287220619854,0.8173230328660929,0.001387098792723177,0.8036317567567568,0.1266279412759233,0.1708503861630251,74.66106148187073
0.2579243291756512,0.7738267925566622,0.001559195873636101,0.795,0.16514198436497,0.1936287218510613,75.47169811320754
0.6438737138838683,0.8164526663730898,0.0002794883868662548,0.7283950617283951,0.02336574680513383,0.02495112409792392,82.37288135593221
0.5773933111391089,0.8043295585294811,0.0004302127332739388,0.7263719512195121,0.05968528033674358,0.07308182354114302,82.60230849947534
0.6354333075840349,0.8447589793903222,0.0002693077517328477,0.748828125,0.03023498061408961,0.02877887927639058,80.12519561815337
0.6098480619933994,0.8425753406516323,0.0002695831556709047,0.757120253164557,0.02628678437632303,0.02502002403204487,79.24764890282131
0.5550949313820915,0.8182157514300763,0.0002665244273139631,0.7739448051948052,0.02302249123974486,0.02534709705168165,77.52490823282642
0.5253926418587076,0.8563253127097514,0.0002654648490449784,0.7933333333333333,0.02836395404186251,0.03039367266122733,75.63025210084034
0.515966040131027,0.8552669092628156,0.0002628242473259448,0.8142123287671232,0.02580593642654373,0.02358173213056619,73.69085173501578
0.5306010717383076,0.8671452486547618,0.0002632878272483413,0.8142123287671232,0.02874851607941921,0.02270259866427434,73.69085173501578
0.3355732175842968,0.8770845429939196,0.001121076490658451,0.819777397260274,0.09983405376165999,0.1318644677205434,73.19060052219321
0.5110672099530376,0.8064774693807195,0.0007882991100943641,0.7576121794871795,0.07819482415567551,0.07504057344089038,79.19619249074563
0.5690650557418033,0.8783624523207489,0.0002607108982469573,0.7694805194805194,0.02805906821013573,0.02584906849589097,77.9746835443038
0.5470971867233392,0.8964172691986797,0.0002576223180451929,0.7908333333333334,0.03460089915337783,0.02883396962012088,75.86933614330874
0.7403899846820873,0.9064589948999826,0.0003104889031200819,0.6988970588235294,0.04006172249163209,0.02505574142928979,85.84955286691216
0.5964761778000013,0.8875816000778972,0.0003710012220140519,0.740234375,0.0727181775734883,0.08460105091815169,81.05540897097626
0.6844532219314616,0.901809940182639,0.0003070835962226452,0.7295524691358025,0.03933293541954608,0.02420614591379636,82.24219989423585
0.6631380662849902,0.9181822907436508,0.0002656386928679873,0.7572115384615384,0.04584145750124296,0.02568066886291619,79.23809523809524
0.5658899149710215,0.7380822635052006,0.0005352883465331955,0.740234375,0.06163339628082631,0.03480563118268819,81.05540897097626
0.4361135998301282,0.9260683031346958,0.001288840334468927,0.7616185897435898,0.1563388348716876,0.1715703468801396,78.77958968963704
0.6888072199117751,0.7474750572402212,0.0005438499578200019,0.7053571428571429,0.08855729653963114,0.1178788592233876,85.0632911392405
0.6985600681951114,0.8924330051599325,0.0003753321118494959,0.744140625,0.03955741167416512,0.02583648068482268,80.62992125984252
0.605382066795788,0.8916610771790316,0.0002930095201646825,0.75,0.04475009723488482,0.02399836399338452,80.0
0.5153689589347888,0.7690975602101362,0.0002710079576635914,0.7796052631578947,0.02478045916664369,0.02909216675785196,76.9620253164557
0.320628319784137,0.8798416770349121,0.001493283601722349,0.8163527397260274,0.1458384992695901,0.2250458093798781,73.4976402726796
0.6030831738670702,0.8388022877524984,0.001631955969239149,0.8428697183098591,0.1885950878108958,0.29277002188456,71.18537859007833
0.3362733944439708,0.8377765027420367,0.001836851104916642,0.8384683098591549,0.1799374154187115,0.2796831354408056,71.55905511811024
1.05509650376352,0.9531191760029422,0.001889490109101172,0.7985641891891891,0.1712513171226268,0.2155465039770126,75.13484928609202
0.5257174382396128,0.9071663748941794,0.001934015599474106,0.8371478873239436,0.1844615526253237,0.2221043834390874,71.67192429022083
0.4538120849715689,0.8859482977280765,0.001981676354171049,0.82421875,0.1781095799246562,0.2562220871090844,72.79620853080569
0.4233729383016312,0.8922691380470488,0.001701187338605007,0.8544642857142857,0.1640793540905604,0.2262870795942719,70.21943573667711
0.505468175977151,0.9032540016108306,0.001950051939781903,0.8609601449275363,0.1931908299613065,0.23138410261117,69.68963703314046
0.6433564567641169,0.9178151673321076,0.002067150099949531,0.8504464285714286,0.1703375110356387,0.23852752552857,70.55118110236221
1.188440777758788,0.9627704560341446,0.001981421060146347,0.835387323943662,0.173553959161772,0.2364344046000316,71.82297154899895
0.4825183408970895,0.8847170725743051,0.002040729544065303,0.8745404411764706,0.1950452323590142,0.2543064261781884,68.60746190225959
0.3900912761534073,0.860783950376416,0.002021312416535474,0.8880597014925373,0.1994153398788954,0.2980315390952014,67.56302521008404
0.4853683200740953,0.8969762355262315,0.00199618558530134,0.8586956521739131,0.2113197653840406,0.2948849710305798,69.87341772151899
0.4780823355376014,0.8938916529103154,0.002016724033680574,0.8415492957746479,0.1889850188736107,0.2670523624417396,71.29707112970712
0.4528443862016783,0.875486496092343,0.002014482726099921,0.8535714285714285,0.1922423235642655,0.2731316223950898,70.2928870292887
0.5222848604380339,0.8729171628448494,0.00191431577773092,0.840625,0.2122207987232031,0.2896295969717684,71.37546468401487
0.520650768703007,0.9031880226226713,0.001951349229117541,0.8491071428571428,0.2012774097191866,0.3080985323170853,70.66246056782335
0.4611284256564152,0.8823843329412052,0.002023148119759728,0.8389084507042254,0.1687066232171043,0.2641107046026615,71.5215110178384
0.6240459670910324,0.9267670249425263,0.002044067345296045,0.8388392857142857,0.1936949600887321,0.2831057936506258,71.52740819584886
0.4904345265946627,0.8766878800435555,0.001926433130488509,0.8843283582089553,0.2033143438244513,0.3022710362506812,67.84810126582278
0.5255824794795413,0.9227732089418919,0.002082584332265623,0.9005681818181818,0.1970357006253858,0.252481672983026,66.62460567823344
0.5766441612581614,0.9248588744563419,0.001849479592710077,0.8263888888888888,0.1599296660128685,0.1966656471287331,72.60504201680672
1.394904629086798,0.9323153893397897,0.0003584783238505521,0.7925,0.03737479096931513,0.03166948185684573,75.70977917981072
0.4914946537883719,0.9217236096376374,0.001705371978221604,0.8305457746478874,0.1838450976004633,0.2508356569264312,72.241653418124
0.606019303614395,0.9294959805819049,0.002085621671993866,0.832306338028169,0.1776490457214586,0.2556558879347673,72.0888418826018
0.4010549193037045,0.8917925254307488,0.001884464853089254,0.8296654929577465,0.1590669257659942,0.2122109378492474,72.3183023872679
0.418299564908557,0.9057460543964007,0.0009777493222751128,0.8032094594594594,0.08968226596957475,0.09969720853870964,74.70031545741325
0.7816791800712423,0.9334048747951439,0.001932521373141814,0.8380281690140845,0.190650602872167,0.2637935813688964,71.59663865546219
0.6788453865931474,0.9243152823662558,0.001735632868491513,0.8401785714285714,0.1729909274192949,0.2435187959593823,71.413390010627
0.5875009393243925,0.9217850067045611,0.001743555649679832,0.8142123287671232,0.180808864073235,0.2379929095582471,73.69085173501578
0.8083728150555455,0.9001382860603806,0.001790246203234619,0.796875,0.1660960283239789,0.2285886754286978,75.29411764705883
0.4579461875682999,0.8178664121452042,0.00187296802021211,0.8384683098591549,0.1912035865137863,0.2574503679630031,71.55905511811024
0.5113952475753925,0.8488824976854003,0.001819216257203714,0.8229166666666666,0.1739926363384382,0.2556847079791167,72.9113924050633
0.4471487537044277,0.8430277617758012,0.001807214992770807,0.8276909722222222,0.2007062897491958,0.2736402040410101,72.49082328264289
0.3967893092498875,0.8733072154320263,0.001628603048745097,0.7861842105263158,0.1723641836060096,0.2309119150238896,76.31799163179916
0.9935886053053085,0.9288168543921941,0.0003023796847086188,0.6857040229885057,0.08856042589971945,0.09338592095470355,87.50130958617078
1.042292843622403,0.9321267267631246,0.000350550307755673,0.6669034090909091,0.06726943399302343,0.0927266948754712,89.96805111821087
0.3869313220176129,0.8083501435828929,0.001441833758684006,0.8032094594594594,0.1491397178858106,0.2047893484193634,74.70031545741325
0.2712514577264691,0.8170686043213884,0.001433003314277479,0.7535601265822784,0.1237064538853789,0.1674660317642709,79.62204724409449
1.020946754608632,0.8671645058811682,0.0002683958287755996,0.7264660493827161,0.02330834485647101,0.02706329386826371,82.59160913436006
0.9865710802275619,0.8611317714660428,0.0002703466388710923,0.723704268292683,0.0264938191149157,0.02575068919130439,82.90679304897314
0.930474453177271,0.849295607239045,0.0002668198307761545,0.7612179487179487,0.02450141803112284,0.02979570591392476,78.82105263157895
0.2393162546650345,0.8962947268017342,0.00114693151751772,0.7620192307692307,0.1030668019093371,0.1173598570166181,78.73817034700316
0.5320868428287047,0.9178323072481132,0.001742300909271729,0.8224826388888888,0.1612756349476215,0.2109395376792554,72.94986807387863
1.24475255119429,0.9209750009249461,0.000326655091052382,0.765625,0.03802714427777975,0.03683804278329531,78.36734693877551
0.3033627246756194,0.9330155592771125,0.001500473534658149,0.7994087837837838,0.1326826926018928,0.1708503861630251,75.0554675118859
0.7001660001876777,0.9347796511377384,0.001960394317339566,0.8250868055555556,0.1775926898037753,0.2175836612613349,72.71962125197264
0.530536743607517,0.9185637530294856,0.001873931929434364,0.8294270833333334,0.1546741278591642,0.2135640303759567,72.33908948194662
0.6379229767370409,0.8709006985689405,0.001294202954917109,0.7575158227848101,0.1311025382697784,0.1546391322335608,79.20626631853786
0.6599253658619267,0.8706513379676843,0.0007127543212289197,0.7820723684210527,0.1930359883263414,0.2152094425592582,76.7192429022082
0.631669790135571,0.8846961402001647,0.0004543613272851528,0.7511867088607594,0.1788928347103019,0.1898886313281875,79.87361769352292
0.6453080450316412,0.9103390371843847,0.0003258209266811201,0.7214176829268293,0.07977692846533313,0.1108395118021692,83.16957210776545
0.8062356867710541,0.920849167138881,0.0003671668237603908,0.7206554878048781,0.1327035116813678,0.1921993403208062,83.25753569539926
0.8577467908709522,0.9391910964107723,0.0003131515898660684,0.6900436046511628,0.1071159051650691,0.1618837296079032,86.95102685624013
0.8884402716604313,0.9346211840362056,0.0002942092825075078,0.7020089285714286,0.1159730151701747,0.09184817963579703,85.46899841017488
0.6732699938702076,0.8965594262263882,0.0002734952479248249,0.74296875,0.03858299445270545,0.02654446055349306,80.75709779179812
0.6258972281647113,0.858227414074944,0.0002738724030020002,0.7528044871794872,0.02560657240588909,0.02415369483176381,79.70196913251729
0.6145184602829946,0.8406727910317654,0.0002755936169273373,0.7568108974358975,0.02902643539532044,0.02335279607275292,79.28004235044997
0.6152476888496826,0.8883945177547021,0.0002750679762419849,0.7484375,0.04498806265277491,0.02899285158514034,80.1670146137787
0.5218642270600231,0.8770038937394238,0.000268803206893458,0.8125,0.03508185145299294,0.03415332564740625,73.84615384615384
0.5274768883934773,0.880064970299959,0.0002703998380533339,0.8120719178082192,0.03124706779262784,0.03014540860101621,73.88508170795994
0.5396700595118054,0.8968427093101267,0.0002708255028468304,0.8137842465753424,0.03486702516146787,0.03036954111898594,73.72961599158339
0.6049321983583755,0.8647333708240872,0.0003507353401681848,0.745253164556962,0.07138031602130965,0.0252689856269575,80.50955414012739
0.6086056383540557,0.860617730452515,0.0002622770116017374,0.725609756097561,0.02846775822710838,0.02455231879119957,82.6890756302521
0.6882303902407765,0.9413412092994757,0.0002820256875630635,0.7283950617283951,0.07260880367197357,0.07590598625931949,82.37288135593221
0.7259157521765829,0.9015539624026323,0.0002834178677383915,0.6994047619047619,0.03507298734938296,0.02326429473761357,85.7872340425532
0.8087516063410938,0.9168635416832868,0.0003034343229411778,0.7075892857142857,0.03328313875944203,0.0227529291110514,84.79495268138801
0.6565128327970032,0.8723377123580374,0.0002705723339553865,0.7364969135802469,0.026868032942099,0.02519455546343297,81.46673651126244
0.7184355706732622,0.9122872316359495,0.0002938364624601229,0.7131024096385542,0.04528414368067963,0.02340572032436599,84.13938753959873
0.746775381428379,0.8872230301466405,0.0002768436231112752,0.7119728915662651,0.03327342032422545,0.02236494016939209,84.27287149656266
0.8342412211236623,0.9457042823924069,0.0003083936984397174,0.7267530487804879,0.1339952247846735,0.1460811386664072,82.55899318300996
0.649101917149957,0.8866676291625635,0.0002878333519851145,0.7252286585365854,0.02792433704530849,0.02598373185259682,82.73252758801893
0.7164088831663766,0.9208531728481527,0.0003137857001825925,0.713855421686747,0.03772582846347997,0.02695305596049836,84.05063291139241
0.7046736871083865,0.8817098951798538,0.0003075865881528876,0.7195030120481928,0.02868867199028425,0.02488540810566236,83.39089481946624
0.5688319727025968,0.855467311486125,0.0002998667706301883,0.7544070512820513,0.02586850714320181,0.02136760808618212,79.53266064790228
0.7727757541877562,0.9093550533507914,0.0003179047360922606,0.7022058823529411,0.05328980390930371,0.02551551815399144,85.44502617801048
0.8823113066550454,0.9242101675125853,0.0003787748281514957,0.6941176470588235,0.1042627872552253,0.1386266746002164,86.4406779661017
0.7745555458856367,0.9047505569007541,0.000285755236943778,0.7018382352941176,0.02976352154118984,0.0236227795630767,85.489785227868
0.8719464337455658,0.8995047351724608,0.000292381530134757,0.6875,0.03196848466267845,0.02396765590148033,87.27272727272727
0.8579067611053116,0.8993586095414204,0.0003496095904419712,0.6849563953488372,0.06468125325821232,0.08747373555396332,87.59681697612731
0.6768520864859217,0.8861999512941963,0.0005560033260845359,0.7555379746835443,0.1669781787106278,0.144380931446589,79.41361256544502
0.4673197334512937,0.6519718159526264,0.001096561821989502,0.7453125,0.1531010823157367,0.1777529842723365,80.50314465408805
0.4588238152989675,0.6588753742735146,0.0005516241559844739,0.7771915584415584,0.05728012585836802,0.069230527615694,77.20104438642298
0.4953309181793835,0.7722257950986109,0.0003266773068878082,0.796875,0.01644792406600544,0.02453549637141627,75.29411764705883
0.4880963971197634,0.8262927547008485,0.0003265842167279474,0.8172743055555556,0.02188722514431071,0.02750440105628168,73.41476367498672
0.6148029027775772,0.623647288423122,0.0007920697956628624,0.8207465277777778,0.07898709341052924,0.1293265329028659,73.1041776837652
1.358510376983989,0.8865696248790194,0.0005444726863057214,0.764823717948718,0.1343390641213395,0.133962387505724,78.44944997380827
0.8516379853394749,0.8491758552894754,0.0004648484482951444,0.7210365853658537,0.08492235623403459,0.09193196038106755,83.21353065539111
0.6519062210914299,0.8600992933654965,0.0004198925867835505,0.7384259259259259,0.0974011800924502,0.08713652183499179,81.25391849529781
0.4501610494196789,0.8335149470698487,0.0003438914258972721,0.8224826388888888,0.0225986389703903,0.02403507560119022,72.94986807387863
0.456806170806583,0.7960951269841716,0.0003424412686402625,0.817208904109589,0.0240793854630569,0.02923169833417142,73.42063907805134
0.4481663714673945,0.8092130087830318,0.000342084126680519,0.8229166666666666,0.0180421959121758,0.02286191710074041,72.9113924050633
0.4438314492760692,0.8636851615259196,0.0003384385147346251,0.8397887323943662,0.02916908719327622,0.03011325348935723,71.44654088050314
0.4524606945977012,0.8664930574777854,0.0003351859133796294,0.846875,0.03347023597808314,0.0307937711328072,70.84870848708486
0.4557770767588954,0.8789384181520179,0.0003352676078488851,0.8263888888888888,0.03163344992758437,0.03146930093612584,72.60504201680672
0.448940917583411,0.8850530798087405,0.0003308539708077358,0.8508928571428571,0.03627901723912508,0.04189250391248978,70.51416579223505
0.4325413326144401,0.8992343923134443,0.0003281124440722753,0.8653492647058824,0.03645028694780042,0.02957251396296149,69.33616569304301
0.4366931144445929,0.9001419085503496,0.0003290020533350572,0.8540178571428572,0.03610555758142098,0.03279686048955013,70.25614218504965
0.4463245402574925,0.8970426885875575,0.000327829904731563,0.8415178571428571,0.03476701334363846,0.03147563469908343,71.29973474801061
0.459781207972328,0.8947163850668851,0.0003294389685344491,0.8371478873239436,0.03553984020807456,0.02941012337857251,71.67192429022083
0.4530986489772513,0.8974397746136256,0.000325646607909213,0.8609601449275363,0.03345323426199164,0.02835891290540719,69.68963703314046
0.4308689192200179,0.9055234936965609,0.0003240022794790933,0.8673007246376812,0.04202937593521804,0.03595148385222049,69.18015665796345
0.4482927764906559,0.9010098106128899,0.0003272634923298912,0.8389084507042254,0.04151347226250562,0.03169328455231937,71.5215110178384
0.4405279572503196,0.9021505645966131,0.0003235203491399095,0.8504464285714286,0.04189060781319822,0.03192211990345308,70.55118110236221
0.4408906437431027,0.9016444197836783,0.0003256668054020286,0.8540178571428572,0.04504506317940663,0.05668111761603593,70.25614218504965
0.4602925059721829,0.9180446740049157,0.0003235907512432349,0.8464285714285714,0.05533553725837918,0.06472489161213713,70.88607594936708
0.4596865806540734,0.880545669282801,0.0003250523496080177,0.8314260563380281,0.03210917211239345,0.02795084971874737,72.16516675489677
0.4414550980591452,0.8981263366944962,0.000322827805299807,0.85,0.04500743986117342,0.04387275738518962,70.58823529411765
0.367887487104934,0.8641802532086835,0.0005048208362483351,0.85,0.057282196186948,0.08628163146079373,70.58823529411765
0.2572169407971311,0.9314408065426545,0.001092140656326112,0.835387323943662,0.1165683758476899,0.16936066755385,71.82297154899895
0.3111200354721013,0.8998321780109139,0.001232105276322009,0.8513392857142857,0.1304007082290302,0.1854507581425651,70.47718930256949
0.2187655356739584,0.7783411074374983,0.001843664909272097,0.8473214285714286,0.1811069984786871,0.2708420427808082,70.8113804004215
0.1910366923348958,0.7646405492751829,0.00159458792594537,0.8477678571428572,0.1595999313094451,0.2297012868040149,70.7740916271722
0.3117026975260396,0.7091177109912239,0.001122188572016,0.7960304054054054,0.2029932637375157,0.2328790730641825,75.37400530503979
0.5874793115711028,0.8957139183435026,0.0003903906271982412,0.768262987012987,0.1026424722230752,0.145387201370576,78.09825673534073
0.5596596744967958,0.8196718349044724,0.0002633270055773832,0.7904166666666667,0.02539958442354695,0.02995633082933817,75.90933052187665
0.5088297911616494,0.8634376380735078,0.0002591407792280699,0.819777397260274,0.03888720873005399,0.03454817489953542,73.19060052219321
0.5057808540759438,0.843279719092554,0.0002587113163581371,0.8401785714285714,0.02507959268783596,0.02712858538382597,71.413390010627
0.5106055375487192,0.8616164809167011,0.0002604489521326667,0.8358274647887324,0.02659849459460938,0.02893187811789223,71.78515007898895
0.5175897836673501,0.8873388453038351,0.0002592628884829546,0.8393485915492958,0.03792880373734246,0.03716367033619181,71.4840062926062
0.5383622230911358,0.9044701574364624,0.0002604026464922905,0.8301056338028169,0.03915522247585251,0.02560648285660712,72.27995758218452
0.6931260987096609,0.8960099632199853,0.0002717498970712883,0.7310956790123457,0.06921472636315625,0.1010201867202788,82.06860158311345
0.7205024773966185,0.9442016384986447,0.000281969842578622,0.7198795180722891,0.07692157210555069,0.1016723725574623,83.34728033472804
0.601006704341753,0.9178299556646956,0.0002855384085354408,0.7515822784810127,0.04066871253947744,0.02476856012191303,79.83157894736841
0.5927509283378322,0.8361276346294717,0.0002777050795444292,0.7535601265822784,0.0227787659001392,0.02347086300621284,79.62204724409449
0.5289768015481445,0.8363935524885263,0.0003069106381560275,0.7796052631578947,0.01889658765308562,0.025,76.9620253164557
0.5664590035667583,0.8661404348691676,0.0003138930666789336,0.7711038961038961,0.02332103554960819,0.02706329386826371,77.81052631578947
0.5752849433338895,0.9019425103515775,0.0002951841358711719,0.7580128205128205,0.03825230212269234,0.02712180916656432,79.15433403805497
0.5711847210873706,0.8556938817260673,0.0002728845893659721,0.7672275641025641,0.02945460941620641,0.03340765523905305,78.20365535248042
0.574637103952568,0.8509398489244008,0.0002668980615364404,0.7751623376623377,0.02805906821013572,0.02867696673382022,77.40314136125654
0.5311835603476562,0.7978569749345386,0.0002686900148477443,0.78125,0.01756098396715676,0.02134781409574916,76.8
0.4998983210595486,0.7590295419215684,0.0002694053292924218,0.78125,0.02267113281593786,0.0299739470207045,76.8
0.6500493620996237,0.9053787237147582,0.0002713149838766855,0.7330246913580247,0.06570658925722991,0.0223715954113693,81.85263157894737
0.787285359700826,0.8982793664622738,0.0003604130164024515,0.7053571428571429,0.05397294965274444,0.02376465939466792,85.0632911392405
0.711880582085552,0.8979259519519378,0.0003017103333702279,0.7090773809523809,0.0330494528489774,0.0272258376352273,84.61699895068206
0.7617031125347525,0.9302974621892921,0.0003111024468607134,0.7087053571428571,0.04263042244371491,0.04058588246449357,84.66141732283465
0.5238082751417042,0.8333211867336577,0.0002795654260810907,0.7895833333333333,0.03359274061791062,0.03166948185684573,75.98944591029024
0.5394636603675588,0.8349729022948047,0.0002773707773912344,0.7771381578947368,0.02396184586239057,0.024738212681329,77.2063492063492
0.5366623452974945,0.8353038878346345,0.0002763243020109974,0.7916666666666666,0.02185018433687816,0.02354283760940263,75.78947368421053
0.5425118896549607,0.8158419223665183,0.0002923661478606825,0.78875,0.0203100960115899,0.02742657581271878,76.06973058637084
0.6507778642247648,0.9093401449290345,0.0002932967732365171,0.7694805194805194,0.03023470865615126,0.02483498169496957,77.9746835443038
0.6197752744681992,0.9078678191858127,0.0002815961066672329,0.754746835443038,0.03917936871650121,0.02502002403204487,79.49685534591195
0.5335456105321046,0.8508288098674731,0.0002732507251172746,0.7866666666666666,0.02812422838447701,0.02516835207052591,76.27118644067797
0.4904678784935341,0.7921573401051017,0.0002723460219181795,0.7916666666666666,0.01863389981249825,0.02268644597730286,75.78947368421053
0.5302535308652978,0.8543564964853029,0.000271843087075667,0.7816611842105263,0.02889721189278635,0.02626983377691352,76.75960021041557
0.5026171938603636,0.7967525207211883,0.0002710079051288242,0.7925,0.02081665999466132,0.02409686252987687,75.70977917981072
0.48978329883493,0.7919605935749587,0.0002711074530725006,0.8040540540540541,0.01801581841866684,0.02507480247535526,74.6218487394958
0.5038967796555752,0.8292211005684466,0.0002718465338387185,0.7929166666666667,0.02151388440570931,0.02594294350237782,75.66999474513925
0.5057907474173542,0.8473887838343386,0.000268212521352688,0.8154965753424658,0.02435181961186283,0.02497828918392041,73.5748031496063
0.4986345036297531,0.8649078059091811,0.0002679320899935752,0.8246527777777778,0.03397636422010578,0.03102914917608198,72.7578947368421
0.5360252683960859,0.8832972236591444,0.0002711812746606754,0.7916666666666666,0.0303337912053355,0.02490480185436948,75.78947368421053
0.5256871228832035,0.8123120891739473,0.0002698407615729386,0.78375,0.01960548392669765,0.02118232466889266,76.55502392344498
0.5161367833541863,0.8216897304230124,0.0002704775110107751,0.7933333333333333,0.02926768221472657,0.02973524787547964,75.63025210084034
0.5536681173825613,0.9144911728984305,0.0003316487529921561,0.7668269230769231,0.07649621144142707,0.1050423152211193,78.24451410658307
0.5532580013947553,0.9231352616008887,0.0003323844583428286,0.7771381578947368,0.07334770287922641,0.1045202332884244,77.2063492063492
0.5916829466712342,0.9194395560762925,0.0002858535015218441,0.7621753246753247,0.04096413273034266,0.02609643363918163,78.72204472843451
0.6050414279751024,0.9056274252805165,0.0002672026586213347,0.7544070512820513,0.0443989075896155,0.02518196762579314,79.53266064790228
0.6623716622273338,0.8615960976032723,0.000362969799134696,0.7248475609756098,0.04458027078015171,0.02925746449019569,82.77602523659306
0.2638331925239557,0.7677711997425091,0.001155796627781607,0.7865953947368421,0.1238005941704217,0.1475494267468815,76.27809722948248
1.015670976279126,0.8906162859785868,0.001702726879213247,0.8362676056338029,0.1811926807080085,0.2443273839251636,71.74736842105263
1.114112614565409,0.9034433030768676,0.001691446615446276,0.819777397260274,0.1735322922143627,0.2483943664512588,73.19060052219321
0.353440962900046,0.8133893657005623,0.001458536593843351,0.8285590277777778,0.1669913061872094,0.2480114575953933,72.41487689889995
0.2788080466987838,0.6550953266260618,0.0009174494697204895,0.8036317567567568,0.0983553886232886,0.1559500545705193,74.66106148187073
0.5100425492939135,0.8342346628052465,0.0002721082697165529,0.7975,0.02569857324184879,0.02860421321262855,75.23510971786834
0.5399396048284814,0.8889596769112893,0.0002733772997564825,0.7920833333333334,0.03326555609368679,0.02516835207052591,75.74960547080484
0.674337890766745,0.9290971198302936,0.0002759937934390454,0.7345679012345679,0.06036545099121651,0.0318305449804115,81.68067226890756
0.5932502227764779,0.8401529490552058,0.0002662205409253938,0.7556089743589743,0.0243832116261265,0.02415369483176381,79.40615058324497
0.2346587238238016,0.6549752263360816,0.00127638523253287,0.8180650684931506,0.1301735934453481,0.1914726712984562,73.34379905808477
0.6028980016531048,0.6710794997360869,0.001555346036777791,0.8233506944444444,0.1703021246060984,0.2593169267246461,72.87295730100158
0.9810020491415229,0.689973060145999,0.001130146289770902,0.8564311594202898,0.1850166800356372,0.2576104934980214,70.058170280275
0.3110971423880363,0.5020087454419039,0.001001841509028349,0.815068493150685,0.1158640652232528,0.1232516621479087,73.61344537815125
0.587997712352618,0.9049563069534601,0.000268706350423401,0.7783717105263158,0.05321143113705031,0.02931509849889644,77.08399366085578
0.6446891522509482,0.88493788958049,0.0002688210210128175,0.7160823170731707,0.02895589199483479,0.02054194369131811,83.78924960085152
0.5950272776079634,0.9109354827502799,0.0002619520241167518,0.7883333333333333,0.04436277218068722,0.0238214607705582,76.10993657505286
0.5201991028191046,0.8627163131398071,0.0002589981575127184,0.8107876712328768,0.03225706546880908,0.02209708691207961,74.00211193241816
0.4941641288249883,0.8759579445330028,0.0002579711990829217,0.8279049295774648,0.0296107186471024,0.0236227795630767,72.47208931419458
0.6149049647705841,0.9249337153686875,0.0001419823450932947,1.119103773584906,0.04074800128106367,0.04864448640588476,53.61433087460485
0.61018010070083,0.8914784635025352,0.0001424402094794726,1.140024038461539,0.07812268857527428,0.07803303410584972,52.63046916183447
0.9414145722504272,0.9328738308365309,0.0001422540533167113,1.096643518518519,0.0504136960064171,0.05806810209686619,54.71240105540897
0.6867115420603311,0.9134836205242511,0.0001383072257772132,1.097800925925926,0.06671176217209095,0.06800626878707303,54.65471797575119
0.6549723585991193,0.8674115403471944,0.0001551556965913174,1.08125,0.06434768838116875,0.06723929420498988,55.49132947976879
0.8352018737494529,0.9034298355172556,0.000128224838999895,1.075568181818182,0.03078685723669107,0.03532463532877744,55.78446909667194
0.6099619902551068,0.9121488777717067,0.0001356877661269067,1.122051886792453,0.05862521590438912,0.06189612110376794,53.47346295323173
0.6708108417494615,0.9254890356146179,0.000136951478710068,1.064732142857143,0.07325374589920508,0.07689370614981791,56.35220125786164
0.8786889892131454,0.9313876947929796,0.0001422714588273056,0.9901041666666667,0.03301853304290722,0.02667830563445557,60.59968437664387
1.143910386843713,0.9179416912255609,0.0001571977050528669,0.99375,0.03644344934278312,0.03794754128834316,60.37735849056604
1.173485800756231,0.8688793389816123,0.0001807825807325675,0.9895833333333334,0.04061164310337068,0.04638693653773584,60.63157894736842
1.056745280914909,0.8940056026510242,0.0001593784121841057,1.004237288135593,0.09050851425124502,0.07154393393404238,59.74683544303797
1.006331048962834,0.8779653078468783,0.0001304698163292317,1.024784482758621,0.05528342818267526,0.05998217937108707,58.54889589905363
0.949684950942601,0.791296236712944,0.0001525645671115582,0.9795081967213115,0.1021486076633835,0.1187225845546387,61.25523012552301
1.036406365566026,0.8883088123860551,0.0001549831768189422,1.024784482758621,0.03470095299160478,0.02984793330880746,58.54889589905363
0.8050250433742403,0.9117085856258127,0.0001744371776738306,1.052455357142857,0.04423643121117503,0.04192627457812106,57.00954400848356
0.6645931762243779,0.9113379984230152,0.0001453542830850331,1.071022727272727,0.03178772893340764,0.04056708835259695,56.02122015915119
0.6158204990819249,0.8869459258505726,0.0001422780601651904,1.086363636363636,0.06444794972022383,0.0724189361618549,55.23012552301255
0.5924078510548495,0.8591113075690922,0.0001431598523852453,1.101273148148148,0.0457761579874192,0.04968948391079097,54.48239621650026
0.5782779655266662,0.8936263233168794,0.0001429161155884292,1.116155660377359,0.07192429566970239,0.07405250865744886,53.75594294770205
0.5507005150119757,0.9054937128182385,0.0001447579104748061,1.124410377358491,0.03513082337209017,0.05164074773783855,53.36130047194546
0.5489469535582785,0.9073012281243976,0.0001439842052202817,1.143028846153846,0.05527539561330249,0.06265299900494568,52.49211356466876
0.5612363490040919,0.8949171089345878,0.0001450926698221297,1.140024038461539,0.03328155167307785,0.04950737714883371,52.63046916183447
0.5525444259442779,0.8973511655846632,0.0001440924858631447,1.156862745098039,0.02934786768340208,0.0385275875185561,51.86440677966101
0.5369948052960867,0.9216153654374524,0.0001443935610344628,1.109375,0.1419051811591628,0.1120996545363536,54.08450704225352
0.5772158320977298,0.9068200138184871,0.0001425606785116637,1.098958333333333,0.1516391439465808,0.1315360763699163,54.59715639810427
0.5609852395930186,0.8987445491257651,0.0001428758115789221,1.1484375,0.07940655603806857,0.08914335639965593,52.24489795918367
0.5554960304677596,0.9136389887756974,0.0001420647981282658,1.123820754716981,0.1609507818927365,0.1660960283239789,53.38929695697797
0.5483148657224832,0.9222738573347774,0.0001409318352556897,1.068638392857143,0.2163790228212059,0.2288651597854867,56.14621409921671
0.5852663971653029,0.8958613654913536,0.0001442264084768567,1.149639423076923,0.05760146594066261,0.0751581257918864,52.19027705175117
0.5889135066063605,0.8983285640938435,0.000143850747487145,1.157475490196078,0.03029217425075557,0.04441459501109967,51.83695076760191
0.5922725085763599,0.8909024008516323,0.0001439559362017813,1.160539215686275,0.03095424250077227,0.04881406047441659,51.7001055966209
0.5655372120201019,0.8885374373526148,0.0001424561394022042,1.170343137254902,0.03729197072231113,0.05,51.26701570680628
0.5743747033892082,0.9075933286218977,0.0001439869833914011,1.157475490196078,0.03387322294383641,0.04238956239453293,51.83695076760191
0.5813571862187377,0.9090977839854038,0.0001421941776266252,1.162377450980392,0.04631801762001043,0.06091746465505602,51.61834475487612
0.5341389704406959,0.9086908524169464,0.0001412269181817519,1.141826923076923,0.1654118660465267,0.1847738913682681,52.54736842105263
0.5389432721095966,0.9190371690211532,0.0001416665517344152,1.172794117647059,0.1000445942954984,0.1083433488959982,51.15987460815047
0.7172466793880297,0.9134951274409905,0.0001499226602784112,1.166053921568627,0.05620579556602269,0.06480137922914912,51.4555964266947
0.7362182313398363,0.919674909771212,0.0001515110003032335,1.131009615384615,0.03877948510793673,0.04712961892899365,53.04994686503719
0.513006269791401,0.87178547735668,0.0001442788451075752,1.149038461538461,0.05293922006140683,0.0667948369643795,52.21757322175733
0.5506976581993624,0.9131747185233906,0.000141105916337945,1.120283018867924,0.06082551285051319,0.07027910531751787,53.55789473684211
0.5928709988723786,0.9182459802518506,0.0001319863861222068,1.109669811320755,0.04232981390518294,0.04156638573507351,54.07013815090329
0.5560049481456842,0.8749153341259068,0.0001306445162217653,1.140625,0.03900235754708643,0.05705443307345481,52.60273972602739
0.5339352685824085,0.8975147170186882,0.0001322056669867849,1.141826923076923,0.07391582625731634,0.08428530999167148,52.54736842105263
0.5340127984934784,0.8968380151923343,0.000133368393358686,1.158700980392157,0.03021771570082832,0.03952847075210474,51.78212585933369
0.4824302238615952,0.8856971586258157,0.0001331373812398549,1.169117647058824,0.02709968674938233,0.04122158111960287,51.32075471698113
0.5176112188010324,0.8998488443126085,0.0001322177631472007,1.156862745098039,0.03789123733759879,0.04901370981674413,51.86440677966101
0.526177963412576,0.8991952879119414,0.0001316870291942103,1.166053921568627,0.06386085735619558,0.06817945071647322,51.4555964266947
0.5386172838110763,0.8981153653316803,0.000132693004194615,1.1484375,0.07964270988596991,0.0827954454321838,52.24489795918367
0.5151251331876137,0.8882910816502227,0.0001317928729847242,1.162377450980392,0.07973695068954671,0.08694017339527223,51.61834475487612
0.5156937311746538,0.9021374843212392,0.0001325855235663433,1.163602941176471,0.05791656812949556,0.06358434359179939,51.56398104265403
0.5356636484174168,0.8875202030251023,0.000133561971962038,1.147836538461539,0.07851235333677936,0.07766408152307944,52.27225130890052
0.6399679059786587,0.9124930934727103,0.0001425566352326322,1.123820754716981,0.1138872578200477,0.1104004130514152,53.38929695697797
0.7207985283228576,0.9265299533468109,0.0001476477494187371,1.127358490566038,0.05492042934997651,0.05289827183813795,53.22175732217573
0.6995773676254344,0.9324353098084995,0.0001330783196189123,1.120283018867924,0.08971181636027677,0.1042767847439614,53.55789473684211
0.5339732440558909,0.9045310082348236,0.000137293433123026,1.17218137254902,0.07487033036326436,0.08761153605547617,51.18661787767904
0.5804686098145427,0.9155811733808835,0.0001379372685648004,1.154411764705882,0.03734227692449165,0.04571480886977436,51.97452229299363
0.5779884281999406,0.9131847244253052,0.0001368258302304776,1.162990196078431,0.03780195297839995,0.04921254921257382,51.59114857744994
0.5355090102198529,0.9067847062512335,0.0001380503565962162,1.144831730769231,0.04546304821251725,0.05269251583944532,52.40944881889764
0.5915603479722538,0.9057066742622905,0.000140556029981411,1.126179245283019,0.1223122394074459,0.1292835750915852,53.27748691099477
0.5593883778362374,0.9169353957758863,0.0001399003026069549,1.150240384615385,0.1086062374423796,0.1222898607776606,52.16300940438872
0.629934889602054,0.9619375453566862,0.0001580025826279188,1.097800925925926,0.1282909235447211,0.09365167800126611,54.65471797575119
0.5930568238358999,0.9354973461136123,0.0001506322695495655,0.9916666666666667,0.2785090201511534,0.2609810268933454,60.50420168067227
0.5290610831793847,0.939078791888108,0.0001655062470504864,0.8889925373134329,0.2924183645811397,0.2991959711738557,67.49213011542497
0.6377556370877767,0.9197232304530581,0.0001641785747686164,1.161764705882353,0.05384492101425298,0.04284784125250653,51.64556962025316
0.6428110099907516,0.9479077659563182,0.0001396617188810106,1.146634615384615,0.1510602629169709,0.1615521944128517,52.32704402515723
0.871378523307561,0.9519999890258098,0.0001511140280947258,1.067522321428571,0.1180809373297926,0.1118827765199728,56.20491374803973
1.198441228985761,0.9436139342864555,0.0002206046382664809,0.9864583333333333,0.0875309964939405,0.08267972847076846,60.82365364308342
0.9535037360012765,0.9452003365805238,0.0002093000192073855,0.9015151515151515,0.06712138313132329,0.09399007721767556,66.5546218487395
1.210312717102348,0.9073417831017262,0.0002177328384660111,0.8627717391304348,0.04394283051303323,0.06541896929880238,69.54330708661418
1.459034442937852,0.9131277802358829,0.0002185257963709274,0.8763786764705882,0.0919611540096017,0.1238284652491912,68.46355532249606
1.165006084769753,0.9520243677365482,0.0002068857304131242,0.8740808823529411,0.1001163426268966,0.1435105078320363,68.64353312302839
1.217599583952442,0.9285872474816039,0.000126005090395457,0.9707991803278688,0.06715952106604052,0.1024599769422188,61.8047493403694
1.085448316868578,0.9138255558136599,0.0001313590344012656,1.005296610169492,0.1050172350118113,0.103806849817175,59.68387776606954
0.9231343130844627,0.9015251223102283,0.0001230314427620927,1.046600877192982,0.06929182598512856,0.07493486755176124,57.32844421162913
0.8976581080708599,0.88981836717147,0.0001234560340031011,1.071590909090909,0.03077636946352463,0.04056708835259695,55.9915164369035
0.8479044814525973,0.9044204076881887,0.0001254142259531089,1.097222222222222,0.05820505074388962,0.05932377383064427,54.68354430379746
0.7755166199177633,0.9065722029745629,0.0001276366159673333,1.108217592592593,0.07811642614132625,0.08110473225613671,54.14099216710183
0.8708442841285606,0.9018594186793237,0.0001293924470249555,1.121462264150943,0.05418115569651012,0.06354298023022262,53.50157728706625
0.8522481668451595,0.9040856215957536,0.0001299168756547813,1.129716981132076,0.08442111475988416,0.08817561966805877,53.11064718162839
0.771093755149987,0.902337541011282,0.0001331950291700887,1.126768867924528,0.081764313400702,0.08996777601538145,53.24960753532182
0.7745577530222971,0.8964971564014591,0.0001346248277586869,1.146033653846154,0.03226777345831442,0.0433189550052295,52.35448348190877
0.7988206300942288,0.8936830606182784,0.0001344349282117162,1.161764705882353,0.02815962081636288,0.04284784125250653,51.64556962025316
0.7629929312413289,0.8777194287638612,0.0001355314590194084,1.141225961538461,0.02412095221200659,0.03094211071802107,52.57503949447078
0.7543618003277398,0.9071839737866034,0.0001417200551734527,1.135216346153846,0.03341151592287894,0.04483937837371495,52.85336156696665
0.6686922042881531,0.8888649730265665,0.0001349198478622881,1.146634615384615,0.07837423262933224,0.08718869693113333,52.32704402515723
0.7739611152521462,0.8983274639370794,0.0001339767009151769,1.146634615384615,0.0570122174309203,0.06386379693397136,52.32704402515723
0.8286418187239745,0.8941810816754239,0.0001367331402155118,1.159313725490196,0.03047752479275953,0.04169270020039479,51.75475687103594
0.6380544986991685,0.9135206467255774,0.0001352917956232063,1.155024509803922,0.03552864954491232,0.04841229182759271,51.94694960212202
0.5801780829296186,0.8863565906434175,0.0001366853537524837,1.147836538461539,0.02946550642339246,0.04287464628562721,52.27225130890052
0.588384633173783,0.884580205217122,0.0001377951406657868,1.120283018867924,0.0512937810635178,0.05878374644537251,53.55789473684211
0.5947176997130872,0.874893473930544,0.0001395824847048921,1.116745283018868,0.02791849198526348,0.04311872864099062,53.72756071805702
0.6106323189327778,0.8932084291519089,0.0001395883958524299,1.107638888888889,0.07787382462502014,0.08389648552245123,54.16927899686521
0.617832727304505,0.8912447446086044,0.000139168222585756,1.107060185185185,0.06604578825528545,0.0782133933905209,54.19759539989546
0.6255724798706578,0.8807530278602875,0.0001391441006376492,1.120872641509434,0.0369444580137277,0.04440613750459415,53.52972119936876
0.6083971410120412,0.9154249788734784,0.0001387170396092422,1.144831730769231,0.05550685857556267,0.05887138065974259,52.40944881889764
0.5994327434340339,0.9016260811677694,0.0001386504864665057,1.160539215686275,0.03216765869707521,0.0463512405443479,51.7001055966209
0.5700125743472254,0.9069247850657001,0.0001392091557745996,1.161151960784314,0.03521019092783981,0.04397264774834465,51.67282321899737
0.6162592070708587,0.8934201834174048,0.0001391074881869371,1.163602941176471,0.02595320904969041,0.03563048203434806,51.56398104265403
0.5802364662897564,0.9142126328947684,0.0001382111937007768,1.169730392156863,0.07585675424477438,0.08028270361665706,51.2938711367208
0.5880039919775274,0.9169814976485725,0.0001378970888542699,1.170955882352941,0.08538070317818801,0.09519716382329885,51.24018838304553
0.6170128091695436,0.9172973548402471,0.0001382635926464509,1.16421568627451,0.04866600404819799,0.05284854539152426,51.53684210526315
0.5731808314055672,0.9375282075936531,0.0001360767909110665,1.149639423076923,0.1454612475939562,0.1636132680151223,52.19027705175117
0.5636295265306618,0.9086008016753953,0.0001370558445679624,1.118514150943396,0.2103209666149906,0.2227906350529746,53.64259356879283
0.5652124133504494,0.9182294979559492,0.0001385263575063033,1.149038461538461,0.1195656741869797,0.1308379385976048,52.21757322175733
0.559327267804836,0.9030596638671442,0.0001382539872504583,1.165441176470588,0.08263203320953327,0.09089399732655618,51.48264984227129
0.5483931280310682,0.8897709674080995,0.0001381145825887954,1.190625,0.02519455546343297,0.03761674005882303,50.39370078740157
0.5848505071709671,0.9031846616212079,0.0001381811901919024,1.172794117647059,0.03979542372825862,0.04375,51.15987460815047
0.6393106581086937,0.9106159449676392,0.0001379304436831004,1.16421568627451,0.04624500554929708,0.05711145900780333,51.53684210526315
0.6710260334021115,0.9094743278569432,0.0001378575595599562,1.162990196078431,0.06136023415254926,0.06945659615904022,51.59114857744994
0.6816905452238947,0.9079572288984281,0.0001384038384451704,1.147235576923077,0.04838766762836698,0.05586743544442733,52.29963331587219
0.6362741799061359,0.9448425203323624,0.000134923635902455,1.167279411764706,0.06802298571753881,0.06760408641494979,51.40157480314961
0.6444216172793522,0.9222916381300783,0.0001329447889922192,1.167279411764706,0.044977326724271,0.06043462376816786,51.40157480314961
0.6219542593235086,0.9258020809168175,0.0001341584960163051,1.129716981132076,0.16684549709333,0.1829885945111166,53.11064718162839
0.6116625562352089,0.8994530964768689,0.000134372057993736,1.175625,0.02643535747819575,0.04211598719668127,51.03668261562999
0.5860109525573791,0.9144667993482509,0.0001355742697578673,1.167892156862745,0.03443387577996843,0.0414578098794425,51.37460650577125
0.6568199274199809,0.9398082312409334,0.0001350206893285006,1.128537735849057,0.05843514378211014,0.05182226234930312,53.16614420062695
0.6732529985242852,0.9211701831701954,0.0001443102743074876,1.122051886792453,0.07967545250758899,0.08580080912295551,53.47346295323173
0.6473368396055483,0.9196335292630577,0.0001306444875855377,1.145432692307692,0.0618611020791239,0.06750771560841522,52.38195173137461
0.9232916196083837,0.966192156863846,0.0001390282307899001,1.077272727272727,0.1336302758353612,0.1029442158359277,55.69620253164556
0.7858024754560874,0.9743036388835447,0.0001376436111644511,0.9153846153846154,0.2564506178169556,0.278606281266122,65.54621848739497
0.6794674232177546,0.964326552940933,0.0001283760509598333,0.9306640625,0.2854754607816513,0.3393705512146657,64.4700944386149
0.6737823931548618,0.9245067129697602,0.000131148535434769,1.185625,0.11865292084479,0.1252389298134423,50.60622034791777
0.6660859149702022,0.9052314936913494,0.000133010947598748,1.19,0.02712816801776338,0.03626802859212482,50.4201680672269
0.6857781690268091,0.9092701893377773,0.0001328303202811792,1.195625,0.04041290790081802,0.05109608545651606,50.1829587036069
0.6874866271515071,0.9259738580476463,0.0001327525687026153,1.185,0.0819298480408697,0.07376210554401029,50.63291139240506
0.6940962659368939,0.9514859663310189,0.0001346587828642906,1.103587962962963,0.2060485894096399,0.2091473875451977,54.36811746198217
0.7462168609359495,0.9596132933832097,0.0001384325961072548,1.144831730769231,0.09173082907492808,0.06534575274614858,52.40944881889764
0.692446436964486,0.9240282970192487,0.0001333388431886418,1.127358490566038,0.04617163195861296,0.0568345693150812,53.22175732217573
0.6391110734232132,0.9306027629307149,0.0001325080809905606,1.146033653846154,0.09567753118255022,0.1026233714733102,52.35448348190877
0.6637200746964398,0.9301406920535685,0.0001353454500636501,1.144831730769231,0.06428603301834084,0.06549210399944798,52.40944881889764
0.6819130125262641,0.9187646615775669,0.0001354066168183168,1.142427884615385,0.07929732475205478,0.08382971038442907,52.51972645975803
0.6202162280168169,0.9211166734026706,0.000133885172937571,1.123820754716981,0.07773185612111791,0.0938501068090864,53.38929695697797
0.6329620326662433,0.9348626045374108,0.0001329459194571521,1.125589622641509,0.06322998404931372,0.06413135371131778,53.30539549502357
0.6747589169842967,0.9092841712856312,0.0001345348085603483,1.108796296296296,0.03595422353474322,0.03980717082457134,54.11273486430063
0.6735681649372267,0.9142341424951836,0.0001347211851845336,1.119693396226415,0.03473272753543193,0.04707489429703399,53.58609794628752
0.6777355867549194,0.9134135699509389,0.0001331637165791491,1.101273148148148,0.07240274876672885,0.0777408005841958,54.48239621650026
0.7028646296182383,0.9158288675116891,0.0001357226002019486,1.099537037037037,0.05611934223333638,0.06130941477149037,54.56842105263159
0.6959556231167233,0.9510446982533353,0.0001341672397703785,1.105902777777778,0.08010605552124533,0.08334561623314701,54.25431711145998
0.674642940415249,0.9190927351981328,0.0001311996138941172,1.11497641509434,0.03421843898242195,0.03851783740135112,53.8127974616605
0.6700196487006281,0.9046220469446337,0.0001301935459243437,1.088636363636364,0.09169405426076906,0.09384640105374709,55.11482254697286
0.6949107550434759,0.9141931119795157,0.0001329729618392819,1.101851851851852,0.03077485138960261,0.03957505706261753,54.45378151260504
0.7311208532402456,0.906929851167266,0.000133133319424001,1.082386363636364,0.05910183465429928,0.06519091442888399,55.43307086614174
0.7573765356482665,0.8972230665506007,0.0001342471923296603,1.078409090909091,0.02722533761525214,0.04252586358998573,55.63751317175975
0.7198194198035716,0.8939539430603265,0.0001332938511822945,1.075568181818182,0.05451585371050444,0.06059002905074704,55.78446909667194
0.7312044985717645,0.904409513026615,0.0001306960204249386,1.05859375,0.1066403183865294,0.1142384617209267,56.6789667896679
0.7447633488186061,0.8900456786595161,0.0001301864890671186,1.064732142857143,0.08243832728847941,0.0874797054386694,56.35220125786164
0.7133482609957388,0.9296492941958612,0.0001309449848091187,1.098958333333333,0.04023135495227939,0.03269084027271017,54.59715639810427
0.7251789171706424,0.9269631378701947,0.0001320466827750185,1.093171296296296,0.03966126317287139,0.05024263064333181,54.88618316569614
0.7244123847301637,0.9065295595506956,0.0001323463862210122,1.083522727272727,0.03320827090046013,0.04123035446888166,55.37493445201888
0.7730661641380564,0.9010523443688693,0.000133762363569504,1.064732142857143,0.02631657616640981,0.03768891807222045,56.35220125786164
0.7706657594234056,0.9123054741772276,0.0001311619631971481,1.058035714285714,0.02978050014313913,0.03649213800757139,56.70886075949367
0.7488171726501132,0.8930346592176533,0.0001306794086250094,1.0625,0.04976226966430346,0.05621842548165471,56.47058823529412
0.7300374094923268,0.8950455903647425,0.0001302061892323262,1.076136363636364,0.05083243010532964,0.05609546674098442,55.75501583949313
0.7916328258297681,0.9599754332620608,0.0001595521622405064,1.050438596491228,0.114521671900441,0.08878206161317563,57.11899791231732
0.9130535313004335,0.9332003948828275,0.000146488708668421,1.127358490566038,0.08004113785213827,0.09192943834602377,53.22175732217573
0.9140995559648784,0.9361705090874513,0.0001441609176521517,1.127948113207547,0.07086273201685667,0.07468382876397107,53.19393622582332
0.8926281024069403,0.9470544791432673,0.0001348905723309234,1.125,0.08189601667462107,0.06852015775836165,53.33333333333334
0.8005448317805266,0.9416820601838798,0.000137398835418625,1.076704545454545,0.04120787355561079,0.03321376123213366,55.72559366754618
0.7338846087738805,0.910436134540774,0.0001368321439090973,1.08125,0.02570041563158782,0.03658213108629423,55.49132947976879
0.7262871540242359,0.9009925057742851,0.0001336619202938174,1.066964285714286,0.05522016462880795,0.06135311357587767,56.23430962343096
0.7328009961022588,0.9107473205813107,0.0001342192578484596,1.080113636363636,0.03410984322682644,0.04252586358998573,55.54971067859022
0.7174710716904743,0.9098252898720223,0.0001360938576277287,1.080681818181818,0.06890244181161728,0.07547592055307,55.5205047318612
0.7274781746154566,0.9614668076248324,0.0001421140037236433,1.097800925925926,0.03709576507068831,0.04335230293549953,54.65471797575119
0.6749240966847095,0.9335911101689862,0.0001298925839605767,1.097222222222222,0.06004033495066175,0.06308686733535498,54.68354430379746
0.7192701451287443,0.905898991970849,0.0001293296176831921,1.079545454545455,0.06329555655288009,0.05593404060273268,55.57894736842105
0.734265015206584,0.9043356956665104,0.0001282163054291222,1.064174107142857,0.08505423584347278,0.08676640531282306,56.38175144205558
0.7017004215562794,0.9246879032205463,0.0001285585582118844,1.08912037037037,0.03527720058825965,0.03957505706261753,55.09032943676939
0.6870891448682416,0.8979716669887139,0.0001295585529680087,1.110849056603774,0.02316849375517512,0.02808490732102866,54.01273885350318
0.7828095952341863,0.9143890012126509,0.0001315923425730532,1.077272727272727,0.03030066278630315,0.03266473562886594,55.69620253164556
0.8824827756381042,0.9441993187642669,0.0001738776497734008,1.009004237288136,0.1243429297425497,0.1157690737989894,59.46456692913386
0.8566439812320548,0.9637374311483334,0.0001454989221801229,1.109669811320755,0.04687407291120706,0.04179167944883103,54.07013815090329
0.5765789271065502,0.8373695218512541,0.0002623251915580826,1.029094827586207,0.1656506231161337,0.1234831208722507,58.30366492146597
0.6926802654259441,0.9624358139387903,0.0001561860772765749,1.085227272727273,0.1253481721294664,0.08515797547521334,55.28795811518324
0.7646419735616257,0.9350784504149945,0.0001301037232961021,1.124410377358491,0.07949635233027905,0.08380774415750153,53.36130047194546
0.727338916711026,0.9447480937717957,0.000127779607365027,1.135216346153846,0.03713825614298168,0.0376427023367835,52.85336156696665
0.6752451066157507,0.9549030454102525,0.0001250551890588044,1.159926470588235,0.1173594830846498,0.1182555495526531,51.72741679873217
0.6991525599631134,0.9512172569401088,0.0001241332007820856,1.17156862745098,0.08448330671678508,0.0855816496101822,51.21338912133891
0.6858230324721902,0.948037170474478,0.0001252718926376656,1.169730392156863,0.04070029878778337,0.04419417382415922,51.2938711367208
0.694365076616205,0.9465712559962463,0.0001235703632881323,1.161151960784314,0.0383345399990614,0.045285552331842,51.67282321899737
0.6917829122838217,0.9384232749558273,0.0001225597356376219,1.19,0.03526683994916471,0.04971218181098234,50.4201680672269
0.6989874608260418,0.9329998900281773,0.0001218984416249523,1.168504901960784,0.08304448208871282,0.0904632176633133,51.34766649187205
0.7088173703910724,0.910427260682151,0.0001208222873220205,1.170343137254902,0.05749364757715638,0.06540140480142609,51.26701570680628
0.7097220679137876,0.9432856055209777,0.0001210071378929646,1.175625,0.03638444894456971,0.03814287386302469,51.03668261562999
0.8043390237393724,0.9597084271120113,0.0001207483286624785,1.10474537037037,0.1573063145551916,0.1335518060741238,54.31115767417496
0.743677182758475,0.9174728884008199,0.00012011504134836,1.160539215686275,0.02398331592007466,0.03878023014372143,51.7001055966209
0.8127334872121943,0.9482760217469197,0.0001207522045920867,1.141225961538461,0.06699306184683534,0.07216878364870322,52.57503949447078
0.7629313917929378,0.9358511957164178,0.0001189995363196893,1.127948113207547,0.05893867452641414,0.0721253999455649,53.19393622582332
0.7785981838317377,0.9579985966237505,0.0001298913719538548,1.125589622641509,0.06381013801164473,0.07277343991932983,53.30539549502357
0.7272866178309743,0.9677490615911498,0.0001237121124074105,1.030172413793103,0.220434212011675,0.2377768469539631,58.24267782426779
0.693974458356291,0.944045484987942,0.0001264733147957054,1.088636363636364,0.04075095699327525,0.04439830504355702,55.11482254697286
0.6764436818044394,0.9114622058112428,0.000125371355267397,1.084659090909091,0.03705834967981892,0.04500514373894347,55.31691985332635
0.6904838339293988,0.8989686251425847,0.0001230293770231311,1.078409090909091,0.02519295372431292,0.03153802452184887,55.63751317175975
0.7369502937597594,0.8979184585360522,0.0001216261189867194,1.080681818181818,0.05286228795278639,0.05609546674098442,55.5205047318612
0.8152261155304228,0.896515466456745,0.0001208615344353525,1.063616071428571,0.0514725560607152,0.06376559524040873,56.41133263378804
0.7654475251871979,0.8997549388617154,0.0001198188387026696,1.075,0.03130676662262706,0.03375385780420761,55.81395348837209
0.7063322845736763,0.909989156054227,0.0001204370630412294,1.078409090909091,0.05773689075209201,0.06206445462402597,55.63751317175975
0.7781756368783801,0.8907571201321084,0.0001204575349886001,1.068080357142857,0.06054623209829841,0.06781387461949871,56.17554858934169
0.7757497598258087,0.9127919156664782,0.0001231500575519672,1.071022727272727,0.03065023627104813,0.03707318837510872,56.02122015915119
0.7791884824341957,0.8778774063889699,0.000121486286292227,1.069196428571429,0.04823701514503195,0.05445363958117367,56.11691022964509
0.7256070936771212,0.9197513566659911,0.0001284386915158528,1.078977272727273,0.0325603381406691,0.03294039229342062,55.60821484992102
0.6659081076202952,0.8793647791266719,0.0001262941787301735,1.069196428571429,0.08572707307889071,0.08788470624010239,56.11691022964509
0.6733100280806738,0.9242503857440688,0.0001267815989559159,1.094328703703704,0.04677487019386531,0.04894223106001682,54.8281332628239
0.7072136281064759,0.9105993891980473,0.0001272845011522118,1.098958333333333,0.02930892884745509,0.03460738346893676,54.59715639810427
0.7706495178586672,0.9076624347345372,0.0001254317194467453,1.08125,0.04789607594478999,0.05673657860544511,55.49132947976879
0.742580638415119,0.8800830313181733,0.0001223563296979026,1.077272727272727,0.0515576083955712,0.05953620902598002,55.69620253164556
0.7062669912291565,0.8856305862678204,0.0001231297700996756,1.068080357142857,0.0548012665053166,0.06768283319343915,56.17554858934169
0.7274155129849906,0.8734053003952629,0.0001213318887480224,1.088068181818182,0.03866142235500909,0.04773516348912334,55.14360313315927
0.6943918860784526,0.8998368703980905,0.000121536338950424,1.077840909090909,0.02971976552414096,0.03238673282322505,55.66684238270954
0.7374899602378843,0.9033684697239737,0.0001200581517712681,1.056919642857143,0.0497998024940248,0.05091492458459058,56.7687434002112
0.7480605447065589,0.9172040548842024,0.0001208098921332399,1.065848214285714,0.06567774544555578,0.0658208657162481,56.29319371727749
0.766523349141857,0.9004319885053411,0.0001197990631086967,1.065848214285714,0.0675107907805206,0.06962256197787925,56.29319371727749
0.7417973643528128,0.9000979322805963,0.0001208125583868014,1.080113636363636,0.02715409805761027,0.03608439182435161,55.54971067859022
0.6680577743353419,0.8901648744868996,0.0001212324418115441,1.069196428571429,0.07917030290610803,0.08061376771652932,56.11691022964509
0.6692758068608194,0.9000023925720855,0.0001227429679732557,1.067522321428571,0.06543786714977017,0.06794466331307612,56.20491374803973
0.7105715541387517,0.8795915345322153,0.0001232885076521224,1.064732142857143,0.06329217356588315,0.0671561105322381,56.35220125786164
0.6717346708308807,0.8888330555372617,0.0001236671493524009,1.075568181818182,0.03509873911700113,0.04540519732854868,55.78446909667194
0.66304983230581,0.8760063226130267,0.000186148188677585,1.049342105263158,0.1107483280890291,0.08709648667467264,57.17868338557993
0.7023064295754878,0.9202101083637636,0.000133699856469992,1.147836538461539,0.04508413301324772,0.04989265437701539,52.27225130890052
0.5469252899590925,0.9454619759175515,0.0001782382017497173,1.108796296296296,0.1315886202765368,0.1189577378577216,54.11273486430063
0.719833621124191,0.9671441257233184,0.0001745263345963236,1.087962962962963,0.09846809747756113,0.0730989410913677,55.14893617021276
0.7876924867278245,0.9422703698683396,0.0001160611543924749,1.115566037735849,0.04485009494277504,0.04727394336369504,53.78435517970402
0.8065606711866562,0.9422856240791454,0.0001152780394539714,1.107060185185185,0.07429302493282536,0.0817834447771836,54.19759539989546
0.9290973856253987,0.9128590846169742,0.0001172123749767538,1.125589622641509,0.0231083937998413,0.03213880278154072,53.30539549502357
0.7290254682248473,0.9295047425078243,0.0001199762043708187,1.134615384615385,0.04135733301462801,0.03962523581917829,52.88135593220339
0.6955872158762076,0.9142935521113253,0.0001193794539019155,1.129127358490566,0.05823848219276295,0.06309809975195523,53.13838120104438
0.718556648127525,0.9424761992333452,0.00011806752171689,1.124410377358491,0.05645617548861238,0.05716404783939479,53.36130047194546
0.7351973751612051,0.9164480830624376,0.0001193443392851982,1.123231132075472,0.04984317029577372,0.05498715977739363,53.41732283464567
0.8761249575087335,0.9085615714295864,0.0001197911667962522,1.086931818181818,0.06353990254065575,0.07141306875417755,55.20125457396759
0.79155897762813,0.9361307231568462,0.000117462689735952,1.10474537037037,0.08593116715037559,0.09014287009132717,54.31115767417496
0.738764680439619,0.9311854191404373,0.000117993308059743,1.101273148148148,0.06042121186961469,0.06622173658419428,54.48239621650026
0.8112080438084162,0.9295709889889681,0.0001190550982583538,1.100694444444444,0.0266706449578771,0.04292517623396532,54.51104100946372
0.7831083504644315,0.9407768778224225,0.0001176523688335602,1.125,0.0648155947342514,0.06309809975195523,53.33333333333334
0.8333111295943969,0.9324581045645172,0.0001177795895128413,1.105902777777778,0.07827916887219095,0.09196412215723555,54.25431711145998
0.7997053258804228,0.9750266382326558,0.0001312927588465033,1.080113636363636,0.09967340780338803,0.08694433351075635,55.54971067859022
0.6014451468172533,0.9163923530911985,0.0001285643377132208,1.077272727272727,0.05773129907218425,0.06073908223797188,55.69620253164556
0.6362125844626101,0.9115707815165977,0.0001281555865791473,1.085227272727273,0.06986557340426998,0.06857089464628993,55.28795811518324
0.6192647931209959,0.9197308200506751,0.0001279437356536591,1.088636363636364,0.05288671035554589,0.0564169333655275,55.11482254697286
0.6675739568899531,0.9008669232473384,0.0001270649376696182,1.084659090909091,0.05979151968671043,0.06393039110945128,55.31691985332635
0.6942726617716725,0.9124118917347839,0.0001294320413186715,1.077840909090909,0.03202046091728494,0.03827327723098715,55.66684238270954
0.720579204231182,0.9006069875743664,0.0001458447633454581,1.040570175438597,0.08799299406903018,0.1004836240656016,57.66069546891465
0.706722260095322,0.9159267469009744,0.000132672437880703,1.05859375,0.03238050017054466,0.03181310836174868,56.6789667896679
0.7217526456629842,0.9279486082449908,0.0001327835560921422,1.091435185185185,0.03601006756042602,0.03692563281096975,54.97348886532344
0.7721618890402162,0.9340802068032502,0.0001311889855626551,1.059709821428571,0.06919417839083283,0.06755153756409048,56.61927330173776
0.7261874898895013,0.9229047262735521,0.0001311667042353643,1.065848214285714,0.04204198259338697,0.03838908166274742,56.29319371727749
0.7029774990505674,0.909662433434864,0.0001320061732299461,1.056361607142857,0.03203241660394233,0.03263956049169334,56.79873217115689
0.7658359838724343,0.9043476934043316,0.0001317071274402082,1.053013392857143,0.04973410145380221,0.05126247076654528,56.97933227344993
0.7136128522350388,0.8930254391206798,0.0001301512824368266,1.059709821428571,0.05020771090078379,0.05021261612564933,56.61927330173776
0.704509712846631,0.8933961029238807,0.0001310673108408952,1.065848214285714,0.05137566645751743,0.05262970989504278,56.29319371727749
0.6810742356695428,0.9183011686473532,0.0001296233216242246,1.064732142857143,0.08243832728847941,0.08267972847076846,56.35220125786164
0.7200062785096324,0.8949066498278243,0.0001316725495092376,1.072159090909091,0.02447802185061138,0.03182344232608222,55.96184419713831
0.757205306582246,0.9154228577170407,0.000143547680981724,1.049342105263158,0.05233951309150273,0.05846339666834283,57.17868338557993
0.6577582310391994,0.9148473012976047,0.0001442932698975618,1.064174107142857,0.03257227265069752,0.03181310836174868,56.38175144205558
0.6734272133029232,0.9198356718671152,0.0001587616538582188,1.020474137931034,0.06528073806405586,0.06398991662617293,58.79619852164731
0.7253115983932287,0.895560837351538,0.0001312974157141676,1.050438596491228,0.06325053360675256,0.07435079888368959,57.11899791231732
0.7328704582200124,0.9054185199540492,0.000134221242166833,1.05859375,0.03014942557866094,0.03624804069940132,56.6789667896679
0.7128743563487155,0.9051393602668075,0.0001325764094712684,1.070454545454546,0.02992544109605385,0.02915426323567129,56.05095541401273
0.6679357793076387,0.9067841243074399,0.0001316088768647487,1.094907407407407,0.07089533718108128,0.08144479551807551,54.79915433403805
0.7441071363157127,0.9264638543695036,0.0001279315666884292,1.137620192307692,0.03888643754528072,0.04733232790288137,52.74167987321712
0.6212163909772869,0.9363369002977534,0.0001268481334189583,1.146634615384615,0.0716128322584915,0.08056840809121738,52.32704402515723
0.6074407044798197,0.9114691811172726,0.0001291384704492483,1.128537735849057,0.08226873526693351,0.08828204773295122,53.16614420062695
0.660929867094639,0.9337430650703116,0.0001296433658972604,1.10474537037037,0.08161363769736134,0.08433459025339216,54.31115767417496
0.7057278214221718,0.9252439103599425,0.0001306149140017792,1.085795454545454,0.07376304339062979,0.08224110612727091,55.25902668759812
0.6588849152278895,0.9099369736811773,0.0001285565717334824,1.120283018867924,0.04044828510882664,0.0466742496128548,53.55789473684211
0.6181120909555649,0.9087925469781635,0.0001277171538260211,1.103009259259259,0.06181032371675318,0.06509925295922417,54.39664218258132
0.6358543653435244,0.8915667895896158,0.0001284719689611604,1.096064814814815,0.04691427823960936,0.06009524672755145,54.74128827877507
0.674045997128359,0.9430931275338683,0.0001404404657019611,1.056919642857143,0.04138503620031062,0.0331790939105828,56.7687434002112
0.6156310222402966,0.9134612455463287,0.0001230503920445013,1.084659090909091,0.03406248815300423,0.03583292958428871,55.31691985332635
0.6253305278838155,0.9063836344463063,0.0001216970725283656,1.082386363636364,0.04393776120268455,0.04697135159190514,55.43307086614174
0.7297062810844321,0.9424045826794626,0.0001285489242684473,1.041666666666667,0.05180848532862917,0.03096972528015984,57.59999999999999
0.7164993922864473,0.8997884405885316,0.0001244139732202625,1.060267857142857,0.05277495722114682,0.0573131846642955,56.58947368421052
0.7190910156403517,0.9003282158431242,0.0001205796090891035,1.06640625,0.06735146624669991,0.07225074708641742,56.26373626373626
0.7545106476733298,0.9259998925667425,0.0001242034843474192,1.066964285714286,0.06640390527072998,0.06595560662638579,56.23430962343096
0.5084112967733141,0.9040358586732931,0.0001954079077245192,1.065290178571429,0.1433608846643805,0.1145488928957254,56.32268203247774
0.4658607676644829,0.7569556299446465,0.0002997548212788696,1.045504385964912,0.1467005280730225,0.1188498170711976,57.38856843209229
0.7736997563579858,0.9357606637334228,0.0001286773975078172,1.136418269230769,0.06036897209026511,0.05788738856523034,52.79746166049709
0.7264756871544596,0.9212376833538832,0.0001258030497062872,1.125,0.08691685736575859,0.08838834764831845,53.33333333333334
0.7421830032258463,0.9451514840224071,0.0001276388797601032,1.143028846153846,0.03988139428614677,0.03389538403416503,52.49211356466876
0.7415530931556988,0.9220342291043271,0.0001239019875733904,1.137620192307692,0.02955728996961042,0.03500700210070024,52.74167987321712
0.7664140445164497,0.9120716350342066,0.0001261395735868419,1.137620192307692,0.03140563132320653,0.03245235950212098,52.74167987321712
0.7464162304791865,0.9307810758531855,0.0001235918296015115,1.143028846153846,0.06408628599407827,0.06446066782215673,52.49211356466876
0.721871201578487,0.9331104449759666,0.000123391113043955,1.157475490196078,0.04417717933253906,0.0350780380010057,51.83695076760191
0.7113909894097341,0.9093015892647316,0.000124562168484859,1.143629807692308,0.02689596634687529,0.03661119913306288,52.46452968996321
0.7902290004872812,0.93787532508696,0.0001245279903649596,1.145432692307692,0.03772200679441157,0.03962523581917829,52.38195173137461
0.7587550630746641,0.9232115067110078,0.00012327400534999,1.138822115384615,0.04264286892934325,0.05377165546431083,52.68601583113456
0.7326620281038554,0.9346339808419669,0.0001219649442203421,1.163602941176471,0.06113341598645548,0.06465050270492875,51.56398104265403
0.7525588996180345,0.925141189738913,0.0001239660327720094,1.146033653846154,0.02984910081295107,0.03913901819282184,52.35448348190877
0.7560124486196573,0.9221753634686003,0.0001233927252311389,1.158088235294118,0.0335614312196793,0.03563048203434806,51.8095238095238
0.7726741117344855,0.9204186463722558,0.0001243985672302606,1.146634615384615,0.02638761826935114,0.03608439182435161,52.32704402515723
0.7634158735299218,0.9300550759275563,0.0001226831380051687,1.154411764705882,0.02994311696782014,0.028641098093474,51.97452229299363
0.710881100677414,0.8949783136001863,0.0001227303129669724,1.162377450980392,0.01858547902953812,0.025,51.61834475487612
0.7550035935292672,0.9426155530298207,0.0001233797557039637,1.140625,0.03493856214843422,0.03155488526858758,52.60273972602739
0.6710959856397389,0.9461173025402718,0.0001207389176227219,1.17156862745098,0.1205349196660471,0.1306534060022929,51.21338912133891
0.7452147270903423,0.9511108732975955,0.0001227257720983228,1.161764705882353,0.04492721269564549,0.0385275875185561,51.64556962025316
0.6925225347947448,0.9193705537215933,0.000121106460037668,1.188125,0.08535083845516692,0.08713938078546042,50.49973698053655
0.7093283963410042,0.9289019335500392,0.0001219424914927985,1.1484375,0.08034700695385179,0.08957193269909375,52.24489795918367
0.7932059289437657,0.9375240526838048,0.0001231700999086992,1.127948113207547,0.1034245846664184,0.1053518315619692,53.19393622582332
0.8221847498684057,0.9504131998546096,0.0001241663364746315,1.128537735849057,0.0621038083370735,0.06383784483119953,53.16614420062695
0.8001674253104762,0.9558203922475573,0.0001206747374074574,1.156862745098039,0.04353509722630296,0.03479852726768764,51.86440677966101
0.7814214631993447,0.9238938105305848,0.0001218791927399844,1.133413461538461,0.02748701112026268,0.03473243313913821,52.93743372216331
0.7796455968911353,0.9443194708382178,0.0001591369854363572,1.060267857142857,0.06438484420471409,0.05637612123456655,56.58947368421052
0.7575286957185716,0.9116734960661349,0.0001381956624029047,1.065848214285714,0.06646952642557187,0.07322715281294849,56.29319371727749
0.6861511964891027,0.9059105659381862,0.0001376659033587105,1.082386363636364,0.06855955967726526,0.06974760217569675,55.43307086614174
0.6973122132386111,0.9050646415657072,0.0001383624912783231,1.100694444444444,0.02925746449019568,0.04094800833731053,54.51104100946372
0.7481071018989419,0.8936299969231161,0.0001374255518200377,1.06640625,0.08996498032096592,0.09590330120396368,56.26373626373626
0.7229151216408035,0.9168231576334938,0.0001382254415290121,1.068638392857143,0.05768858669543821,0.06106302630739965,56.14621409921671
0.7006679170485972,0.892806661914962,0.0001366971291273443,1.081818181818182,0.02492240022666058,0.03532463532877744,55.46218487394958
0.6825449411087932,0.9402803158850661,0.0001367848824395956,1.065848214285714,0.06929536417980084,0.07561302497225293,56.29319371727749
0.6768572275806768,0.9177928597373506,0.0001363652277859686,1.103009259259259,0.07405598737521477,0.08477043083172472,54.39664218258132
0.6607175014094704,0.9171153109132414,0.0001381051339001739,1.106481481481481,0.0303805665472377,0.03591377908688929,54.22594142259415
0.7328234245600372,0.889962443692774,0.0001373677418843831,1.064174107142857,0.07777144168690683,0.08635615996346968,56.38175144205558
0.7240107855713805,0.8975581542513209,0.00013524484506806,1.089699074074074,0.02409103969502158,0.02973943446443041,55.06107275624004
0.7337469914701701,0.9605898798614516,0.0001385831882300864,1.05859375,0.07946671532702274,0.07407095032344449,56.6789667896679
0.653520563651291,0.9392406642120272,0.0001297557803706474,1.080681818181818,0.04829879667580321,0.03920690899526463,55.5205047318612
0.7291956475784089,0.9334939978071395,0.0001304118277845769,1.060825892857143,0.05646648657695698,0.05974020459836529,56.55970541820095
0.7136356905156148,0.8722082154863714,0.0001323828438219359,1.055803571428571,0.02187044413199266,0.03038577717527486,56.82875264270614
0.7127844673534979,0.9322682458227298,0.000131229420536435,1.079545454545455,0.0483455622413242,0.0394368635125019,55.57894736842105
0.6259769710188117,0.9267178756025689,0.0001305159634095834,1.120872641509434,0.03489251090922993,0.04133986423538423,53.52972119936876
0.6846294045380942,0.9184433308735017,0.0001297753269138053,1.096643518518519,0.05520784804507576,0.06130941477149037,54.71240105540897
