sample_entropy,shannon_entropy,rms,zero_crossing_rate
1.106366098397489,0.7101057761263376,6.039424361316067e-06,0.2075520833333333
1.099616412475529,0.7306848475435966,6.316513536861141e-06,0.1903645833333333
1.188504405028031,0.6909056811576058,6.377980815922459e-06,0.1859375
0.7405978641194044,0.6596282696480922,1.730333959949423e-05,0.1274305555555555
0.7645008928602972,0.6425863191234265,2.110676270789918e-05,0.1286458333333333
0.9505268967222777,0.6952745157252415,1.142483487795354e-05,0.3111111111111111
1.711538086120181,0.80344455084721,4.264320599869493e-06,0.3574652777777778
1.71566987956876,0.8185828979612485,4.171909271251679e-06,0.3866319444444444
1.166477392780684,0.7514555951209785,5.793829580795184e-06,0.2420138888888889
1.427311012511512,0.7990211941885849,4.620053983968042e-06,0.2850694444444444
1.409644535508912,0.7919864390217306,5.266162669434584e-06,0.2876736111111111
1.499523044425867,0.8302192431492066,4.641796761200838e-06,0.2744791666666667
1.469270163748418,0.8258454584255464,5.033188595392179e-06,0.2755208333333333
1.516248154877766,0.8417347435283253,4.924329063052053e-06,0.3135416666666667
1.616782889851268,0.8418733499927809,4.303885175038317e-06,0.2928819444444444
1.724849861645492,0.8520197323233766,4.292963073719658e-06,0.3578993055555555
1.178444275464749,0.7139551492577624,6.431207001051995e-06,0.2800347222222222
1.522235503849367,0.8602112174242187,4.005206800370142e-06,0.3236979166666666
1.698739517413793,0.892590069970362,3.797284758197313e-06,0.3644097222222222
1.742999054388609,0.9036289366179522,3.548081462998092e-06,0.3823784722222222
1.111721393272246,0.6066636955786726,7.546673557884724e-06,0.3160590277777778
1.54857992475516,0.8307126676527187,4.302913674757513e-06,0.2916666666666667
1.090175232696357,0.6980082021916714,7.155441654194275e-06,0.2686631944444444
1.071210489531462,0.7618506188735051,8.13708970137723e-06,0.3138888888888889
0.808923049859094,0.7220885614914678,1.05343049455921e-05,0.2491319444444444
1.824582759447372,0.8532536949318265,4.50331904206343e-06,0.3727430555555555
1.129757850333485,0.7623181048717099,6.815750243162008e-06,0.3099826388888889
1.489401888352001,0.7857763533397235,4.319340826580382e-06,0.2868055555555555
1.679496188284679,0.8594506631346956,4.317639174668489e-06,0.3514756944444444
1.373338187772229,0.803883367185986,4.652612614969348e-06,0.3037326388888889
1.351819763558544,0.7650132118987589,5.398839990142966e-06,0.2702256944444444
1.245746709999688,0.7164696360593353,5.7766542248599e-06,0.2521701388888889
1.141269284114751,0.7055500168044554,7.477960505450431e-06,0.2862847222222222
1.850086750986453,0.8720415982742735,3.774311226678887e-06,0.3955729166666667
1.659216957040114,0.8601060339800491,3.738963653658214e-06,0.36484375
1.142763478583909,0.7633197653730207,7.184749673831027e-06,0.3099826388888889
0.9498166358349498,0.7584810701006505,8.983793089452726e-06,0.2649305555555556
1.341333952531081,0.7628881850888577,6.213375228317267e-06,0.3219618055555555
1.782073565497427,0.846414951181472,4.439690240549011e-06,0.3824652777777778
1.603519407559127,0.7959251129715219,4.93002544910301e-06,0.3314236111111111
1.743561608116209,0.7955611506258489,4.579285899693531e-06,0.3645833333333333
1.251703648504681,0.7777725394334861,7.235608977969203e-06,0.3342013888888889
1.45534068379537,0.7635032497623259,5.015157419354916e-06,0.3177083333333333
1.546031546606835,0.8195448224032673,4.016200537435451e-06,0.3494791666666667
1.552484923287061,0.8087855629622693,4.128752121203474e-06,0.3211805555555556
0.5682147050328258,0.5843221749316453,1.298033149540123e-05,0.2353298611111111
1.58780168241785,0.8212217034080057,3.918778791260647e-06,0.3113715277777778
1.54209853152215,0.814937543826588,4.158518450157738e-06,0.3501736111111111
1.735180445785344,0.8261853912342046,3.90084034939528e-06,0.3645833333333333
1.555425125314478,0.7877631487967569,4.315718417793592e-06,0.3088541666666667
1.67312603001711,0.7747168029458212,3.876374576025403e-06,0.3098090277777778
1.018039010534719,0.6660644389258976,7.835039340851237e-06,0.3397569444444444
1.075889110914747,0.6914739732171173,6.67334457759708e-06,0.2967013888888889
1.898868442617286,0.8613035529536971,3.932904639253902e-06,0.4514756944444445
1.890467544977044,0.8701501479092663,3.666526334281153e-06,0.4269965277777778
1.045883450208911,0.7038000229984127,8.366852280720464e-06,0.3124131944444444
1.240121334048012,0.7277545735005491,4.886581044169293e-06,0.2454861111111111
1.275445792692588,0.7425963062523514,4.930003968866964e-06,0.2332465277777778
1.371571397069588,0.7334025216626057,4.862013058202127e-06,0.29921875
1.285732288136645,0.772235979178834,6.862518716754108e-06,0.3504340277777778
1.396001482709308,0.7993627529419352,4.511069237441369e-06,0.2962673611111111
1.616321312366507,0.7977429897088298,4.569685220331866e-06,0.3836805555555556
1.256629870715744,0.7730377483514843,7.062732964466578e-06,0.3434895833333333
1.494120467001508,0.791513541981348,4.895206115860413e-06,0.2904513888888889
1.716212881769074,0.8330525737977575,4.003747380315799e-06,0.3700520833333333
1.768656355280575,0.7547512439941603,4.104028092215139e-06,0.315625
1.876873893827505,0.8986113988039974,3.354470563346081e-06,0.4252604166666666
0.9965176735785554,0.7244519701957216,9.456064513008641e-06,0.2810763888888889
1.036835469891824,0.7011203073554749,6.748078253689838e-06,0.2645833333333333
1.471811834579988,0.7552529775630146,4.853052745466547e-06,0.3049479166666667
1.441729268639373,0.6974839292471926,6.173726202274131e-06,0.3467881944444444
1.907553022284664,0.8474680439750929,3.577561776088438e-06,0.4450520833333333
1.159672703855078,0.7212547281238619,6.82319824665771e-06,0.3188368055555555
1.172823820053684,0.5403816982800616,6.891748058530095e-06,0.3313368055555556
1.462182487618745,0.7303894983731583,5.245126892505748e-06,0.3745659722222222
0.6767428224389406,0.5181696423797039,1.316598792679228e-05,0.2713541666666667
1.686766070372516,0.8131236376407102,4.356863264677475e-06,0.3732638888888889
1.791879620335887,0.77526584815077,4.120384081801416e-06,0.3409722222222222
1.378180442987866,0.7618059681633209,5.488990571817876e-06,0.3980034722222222
1.282547370960985,0.7492792151638948,5.622800962180386e-06,0.3407118055555556
1.733737791305535,0.8069828636797528,3.842158916745901e-06,0.359375
1.836265866445631,0.8869755082548235,3.241198542704122e-06,0.4199652777777778
1.187868142345856,0.7168014274277185,5.401673520576819e-06,0.3315104166666666
1.356147792568194,0.71484890079062,5.603622703920266e-06,0.34921875
1.395384737695851,0.7369595945028576,4.702845538157099e-06,0.27109375
1.068945874375843,0.666682891993247,7.461286636264729e-06,0.3209201388888889
1.24857042053892,0.6865404262361072,6.05206372238693e-06,0.3366319444444444
1.508672394784785,0.7758339736662632,5.184715846596059e-06,0.3622395833333333
1.782357140720453,0.7936662950996828,3.548561081167407e-06,0.3178819444444445
1.226079766582636,0.5968308413221652,5.507754072199925e-06,0.2885416666666666
1.611184546756723,0.7524124482030852,3.122570673044445e-06,0.2501736111111111
0.8667024242223649,0.8046539863713787,8.761373204395135e-06,0.2583333333333334
0.4198493331111107,0.5533922284948074,1.978013995278117e-05,0.2307291666666667
0.6076375733737219,0.5206587619423075,1.648900290313534e-05,0.3713541666666667
1.843572473054679,0.8420757986826803,3.40262868454571e-06,0.3651909722222222
1.717519313897632,0.8448726582186349,3.094636039937509e-06,0.31640625
1.571120258081866,0.7529529098132945,3.425505916825747e-06,0.2835069444444445
1.390188876920619,0.7351771203958694,4.424549057949834e-06,0.2690104166666666
0.8688037887071635,0.7528927585386228,1.099325540425753e-05,0.2103298611111111
1.217533258828634,0.7343333581917887,6.905888246381034e-06,0.3068576388888889
1.418494105750705,0.7468216185440553,5.998766883096487e-06,0.3474826388888889
1.291665401364948,0.6761931211735838,6.403736096547086e-06,0.2771701388888889
1.393550263477292,0.6155825711913309,4.220394091995916e-06,0.1947916666666667
1.42767118568231,0.6477786800755139,3.645253083452064e-06,0.2140625
1.509412443408825,0.7006172756249807,3.451983290329162e-06,0.2307291666666667
1.739173085120717,0.8662016282791519,3.042938249628553e-06,0.3002604166666666
0.9134286729549413,0.7639726730058092,8.669221386363792e-06,0.2527777777777778
1.17274888678914,0.8241314465229276,5.582148300789175e-06,0.2506076388888889
1.283843617346641,0.7743502113707958,6.385015029331632e-06,0.31484375
1.946701892261165,0.8069150700562304,3.836626081550314e-06,0.4368923611111111
1.263590726724584,0.7480155957749725,6.879771415601485e-06,0.3431423611111111
1.580710679748586,0.7833543628981836,4.593437084446918e-06,0.3477430555555556
1.461516674131654,0.7944515970112492,5.973459907501233e-06,0.3391493055555556
1.201658345527066,0.7503409321601131,8.176352287469285e-06,0.3255208333333333
1.415656953420568,0.7699900762582185,5.330966031984688e-06,0.3193576388888889
1.93863390842465,0.8190880497307366,3.866350789049591e-06,0.3916666666666667
1.491690969946615,0.7712460937402187,4.826674588288736e-06,0.3457465277777778
1.945194926252131,0.8632909608510979,3.533332800081232e-06,0.4444444444444444
1.507008370439451,0.7436081716970118,5.511957786994987e-06,0.3373263888888889
1.203261738520247,0.7834431162892341,7.645766270135493e-06,0.33203125
1.823318451816254,0.8079026867388053,3.762531531702005e-06,0.43046875
1.140232875387845,0.6810307382775793,8.108955314300366e-06,0.3467881944444444
1.199384561772866,0.6766467124531683,7.25336132508586e-06,0.3177951388888889
1.014238812041906,0.7099139699655383,9.064272800050382e-06,0.3418402777777778
0.5441949812395482,0.6056328141134075,1.836220856723758e-05,0.2040798611111111
0.6760590045152773,0.4205067573281233,1.463397314397932e-05,0.3089409722222222
1.826047643537006,0.79486422864201,3.957358096499917e-06,0.3667534722222222
1.792140294671797,0.8289372442597222,3.279002774303361e-06,0.3691840277777778
1.660946358079257,0.7923083042834346,3.38482037740582e-06,0.3100694444444445
1.128255366865456,0.6800683445766865,7.237987453463122e-06,0.3259548611111111
1.862116291233428,0.8477041406743591,3.207954314540357e-06,0.3910590277777778
1.309833698762706,0.6819950265782957,5.627142341624129e-06,0.3716145833333334
1.634412030394859,0.8273825969582886,4.023735268822509e-06,0.3551215277777778
1.843033682443431,0.8115146891059083,3.854160619705696e-06,0.3782118055555556
1.65085042251492,0.739917338010888,4.054255711639452e-06,0.3264756944444445
1.084472187992038,0.6670613811969448,7.594986378159783e-06,0.2959201388888889
1.475693114992375,0.7278376144247695,5.11910371453685e-06,0.3055555555555556
1.641563306412159,0.7637003412528501,4.091614288003075e-06,0.2984375
0.50262275430845,0.545254312422147,1.646208446152908e-05,0.2597222222222222
0.9063393922438079,0.7055986770388432,1.009104780060134e-05,0.3223090277777778
1.483893688704016,0.8241608526812019,5.058131444747288e-06,0.3628472222222222
1.906991272514164,0.8484555782850256,3.722888444424884e-06,0.4036458333333333
1.74596018964686,0.7677756841462324,3.563597443951046e-06,0.3151909722222222
1.579442221127773,0.7547170447156517,3.349616995584205e-06,0.2621527777777778
1.508215055902027,0.7768487605062693,3.551356226483018e-06,0.2447048611111111
1.156862650208201,0.7262522483365828,5.238697284896172e-06,0.2433159722222222
1.143885313271909,0.7157056869454296,4.887953205552636e-06,0.2885416666666666
1.775887582185568,0.8913512585923229,2.678550707164939e-06,0.3506076388888889
0.9922701696378332,0.6588570400602038,6.979742050653389e-06,0.3160590277777778
1.142772739283986,0.6978186119258476,6.831549996452303e-06,0.3483506944444444
1.365627261546704,0.7226989638318254,6.8406161972381e-06,0.4136284722222222
0.6292625989096504,0.6014457413355703,1.309996656428892e-05,0.2660590277777778
1.496623045142121,0.741959571143201,4.381677770822007e-06,0.2944444444444445
1.724443650375996,0.8057610281542439,3.31889393276379e-06,0.3261284722222222
1.557416620112432,0.7548151337668767,3.378062727605351e-06,0.2607638888888889
1.519782424358454,0.7717212413081731,3.634035224970399e-06,0.2352430555555556
1.613254358049517,0.8267047593402699,3.45349917444854e-06,0.2625
1.565431767251842,0.853338407612026,3.654523008064644e-06,0.2802083333333333
1.523161600710841,0.8539872285343265,3.826095445637241e-06,0.2802083333333333
1.601740688744015,0.8858289735584055,3.349263275133129e-06,0.2863715277777778
1.127428927890793,0.6530407701445496,6.36175728431483e-06,0.3065104166666667
1.620810761900248,0.8134598386754587,3.332537459104381e-06,0.3001736111111111
1.190841893984722,0.6734824433632578,5.606662532937151e-06,0.31875
1.640539605488193,0.8299215640790424,3.033991146193289e-06,0.2930555555555556
1.771526121919591,0.9252787725799,3.160987550340895e-06,0.3815972222222222
1.664052364204606,0.8284570683802559,2.937976447940461e-06,0.2938368055555556
1.601541683342611,0.89899339146521,3.629117970682892e-06,0.3125
1.594477046392467,0.8718293552526324,4.261716442471393e-06,0.3563368055555556
1.719493120437698,0.8853681215277907,3.250645735993902e-06,0.3691840277777778
1.378114060684165,0.8473843255422365,5.168903799150505e-06,0.3950520833333334
1.92671810954245,0.8850425818144622,3.525269947340643e-06,0.4299479166666667
1.298942954720422,0.7298542449912494,6.659867068233686e-06,0.4095486111111111
1.075091836101687,0.6977982498548275,8.86064336589637e-06,0.4349826388888889
1.940936282340021,0.8305089239060643,3.657683564437237e-06,0.36953125
1.771585186288155,0.8512025870746223,3.07691295150845e-06,0.3210069444444444
1.770672738778058,0.8855733989739066,2.933546272483492e-06,0.3458333333333333
1.748123856076336,0.9051582563755248,3.161456243086593e-06,0.4010416666666667
1.732789418216245,0.8515353119912545,3.0663019032183e-06,0.3032986111111111
1.668663830175589,0.8692515469171086,3.363106913879511e-06,0.3112847222222222
1.798811102641646,0.8924075856092768,2.959139502040751e-06,0.3730034722222222
1.561027682259569,0.8189728047320886,4.029286724242529e-06,0.3516493055555556
1.016677219318872,0.7004570555616141,7.635799284283555e-06,0.3472222222222222
0.9998518370159604,0.596824030297811,7.999088036076788e-06,0.3918402777777778
0.2450702787419587,0.3059718551880063,2.914894298119628e-05,0.2669270833333333
1.536416545028719,0.7823481453494502,4.921569415847446e-06,0.2625868055555556
1.653908793291132,0.8524898351933927,3.587196706630266e-06,0.3078125
1.623921792838557,0.8332444148698305,3.383772911885251e-06,0.2896701388888889
0.9806505626959776,0.7732571543785544,7.240751868953817e-06,0.2725694444444444
1.193590416064154,0.8523200990396088,5.380466488516239e-06,0.3388888888888889
1.630672496127694,0.7766980606330883,3.255436602114782e-06,0.2678819444444445
1.560488745384623,0.8237754284967995,3.553853565906352e-06,0.2817708333333334
1.661124823973965,0.877859596844169,3.209516550268917e-06,0.3143229166666667
1.599758185608534,0.812023195215242,3.486927860956283e-06,0.2910590277777778
1.563381495190274,0.8438903239735189,3.436415475372579e-06,0.2671006944444445
1.596950209486959,0.8898172446621128,3.932587106543258e-06,0.3081597222222222
1.571144717958309,0.8828703762011818,3.538324071157162e-06,0.2875868055555555
1.162541249304645,0.7248903943985942,5.824042667614729e-06,0.3269965277777778
1.202635056807977,0.6915713563246183,6.145132446476942e-06,0.2938368055555556
1.004674795151252,0.6723592935734575,8.370764714084029e-06,0.3315972222222222
1.034441371763722,0.7063632570266877,8.980945645509005e-06,0.3094618055555556
0.8020229707275218,0.5863343552394725,1.256470226674061e-05,0.3296875
1.044354837719825,0.7819318138402273,9.476155511685828e-06,0.2588541666666667
1.21181591776257,0.7822323499384012,7.294091281075692e-06,0.2724826388888889
0.6387380550654336,0.7866404256879798,1.570491961369086e-05,0.2782118055555556
1.077328722947704,0.8384470760732562,7.634112557278017e-06,0.3280381944444444
1.801451438788612,0.8179650733806647,4.011070315179494e-06,0.4427951388888889
2.054334648336435,0.8177929127519226,3.944162371880455e-06,0.4813368055555556
1.836979657462131,0.8683001741046562,3.531823629647317e-06,0.4736979166666667
1.740031524349063,0.8221272912439351,3.570351458096508e-06,0.4374131944444444
0.8135187087481753,0.7518447568175756,9.489152527446614e-06,0.3855902777777778
1.822675770092805,0.8471361557853636,3.231811353201152e-06,0.4779513888888889
1.93098026949233,0.8508214142127439,3.002856879559262e-06,0.4965277777777778
0.9226696752154013,0.7460987015155182,1.019101301399777e-05,0.3626736111111111
1.940721353419743,0.8572057007358398,3.364367224057125e-06,0.4583333333333333
1.974928964106647,0.9035336067929114,2.954104131444618e-06,0.4730902777777778
1.944061555815393,0.881889026078902,2.929241128513342e-06,0.4189236111111111
1.86681695989976,0.89138892982559,2.773301799901193e-06,0.4180555555555556
1.824970035087993,0.8554671858626698,2.979248107857322e-06,0.3598958333333334
1.83536069811207,0.8754203742152858,2.756218516202594e-06,0.3889756944444445
1.828563582615163,0.8302252324185279,2.680386001596021e-06,0.3474826388888889
1.767892907201047,0.8407174189867321,2.790168263589101e-06,0.3680555555555556
1.675652370333451,0.843652514442618,3.015672196333696e-06,0.3605034722222222
1.727520790129591,0.8255588695515353,2.705202064123451e-06,0.3413194444444445
1.590362504350167,0.7985878156646035,3.143206943756529e-06,0.2736979166666667
0.9605680900331509,0.7324662248093414,7.513647668867734e-06,0.3442708333333334
1.74535712018818,0.8666367578166215,3.670664527050418e-06,0.3971354166666667
1.813944975854958,0.8737140336708521,3.096268700188056e-06,0.3356770833333333
1.813813104846531,0.8345015133913848,3.314674150595442e-06,0.3376736111111111
1.542239134324864,0.7699248819514037,3.75079241307163e-06,0.2904513888888889
1.66025421318918,0.8089485758884198,3.263823345259514e-06,0.3265625
1.745513530517904,0.889872262463861,2.982706162957555e-06,0.3776909722222222
1.591202838507252,0.7921450796807318,3.197017921936217e-06,0.2794270833333333
0.7534274310746734,0.7316311098120869,9.701095778859349e-06,0.33984375
0.792817838262399,0.7091565248336994,9.598175135104266e-06,0.3472222222222222
1.914726239106699,0.8037515343533573,3.719837321073592e-06,0.3868923611111111
1.832162004844138,0.857218959553867,3.040880134514679e-06,0.3776041666666667
1.882818246207017,0.869149337850332,2.96132488900059e-06,0.38828125
0.951814160545748,0.6570893532523283,8.62653104242761e-06,0.3549479166666666
1.521193324279139,0.8603473182937934,4.982669588471554e-06,0.3803819444444445
1.912321087723554,0.8445964513899676,3.2849687559502e-06,0.4012152777777778
1.807894109496423,0.8473173488476541,3.228276101924018e-06,0.3639756944444444
1.354444031261233,0.747257502674083,5.317931795881994e-06,0.3566840277777778
1.379894737725097,0.7144712413683374,4.942461967891346e-06,0.3236979166666666
1.684801639563728,0.8193191374350843,3.127842148925034e-06,0.3296006944444445
1.28853923463301,0.8054158087438948,5.003407386387733e-06,0.3567708333333333
1.34900412522585,0.8022403620876181,5.267169210175602e-06,0.3515625
1.682879638394272,0.817164392246968,3.177980685286521e-06,0.2955729166666667
1.580615590909198,0.7959720198923395,3.260000028687949e-06,0.2796006944444445
0.7947370492798809,0.688931848944292,8.806727109780153e-06,0.3129340277777778
1.239104226040604,0.7972574025337902,5.396142472219162e-06,0.3765625
1.732392051427155,0.8690201999491673,3.427243360659296e-06,0.3934895833333333
1.542263279650334,0.8750085036493562,4.288420073889506e-06,0.4606770833333333
1.380696685994629,0.8353747006069234,5.081178793762529e-06,0.3360243055555556
1.514647740070171,0.8559788894856449,4.493709488512473e-06,0.3847222222222222
1.817602875443403,0.8719185463909631,3.210126016713656e-06,0.4302083333333334
0.9528962973453508,0.8016731176203498,8.599566693109028e-06,0.4071180555555556
0.9859695148235872,0.8075917305345015,9.632698247658744e-06,0.3722222222222222
1.910066896862095,0.8764402371947481,3.342614770623002e-06,0.4490451388888889
1.522181241465979,0.8656288244298881,4.848740290790704e-06,0.45703125
1.965993442044919,0.9006510093315276,3.186675010403012e-06,0.45625
1.752949919988077,0.8788742513028561,3.303797236522119e-06,0.3758680555555556
0.791332595458512,0.714638309393983,1.175056107820352e-05,0.2607638888888889
1.251739194439031,0.732723317362897,6.358225117221823e-06,0.3611111111111111
0.6078421774799718,0.7839147271950199,1.290370345762219e-05,0.3098958333333333
0.5847339594072442,0.6346185095926778,1.663313539405518e-05,0.3252604166666667
1.850267644776042,0.7767640081996613,4.295242532742422e-06,0.3955729166666667
1.935303905759753,0.8478484665280657,3.560716575771287e-06,0.4360243055555555
1.315010747774135,0.8171554920772623,5.871415249304956e-06,0.3532118055555555
1.354109633295683,0.8349690985091479,5.525685623171334e-06,0.4462673611111111
0.9468937684022248,0.6811898989160613,1.007701053225486e-05,0.3817708333333333
1.910327715919593,0.883039985256238,3.111823144435823e-06,0.4802083333333333
0.8763382069380982,0.4538799608899255,9.89730065397369e-06,0.4075520833333333
1.904805369505923,0.8898534228744294,3.138737243943876e-06,0.4006076388888889
1.616437402386838,0.7816303856461952,3.691168709887714e-06,0.2993055555555555
1.50637148406891,0.803959158010576,3.750083196024013e-06,0.3970486111111111
1.85667777421632,0.9278572366204944,2.675732921642707e-06,0.44453125
1.200886098189483,0.7619288790751745,6.1303312596938e-06,0.3911458333333334
1.756425890789982,0.8894802992976164,3.384620719358233e-06,0.4237847222222222
1.867231784202098,0.9088401155025871,2.992523848146293e-06,0.4708333333333333
1.071277021823815,0.6804747445572542,7.963067379239073e-06,0.3677951388888889
1.266091081529287,0.7201845625011043,6.69888664762649e-06,0.3783854166666666
1.253100511787333,0.6879156724542758,6.136721417463238e-06,0.4118923611111111
1.310140366394912,0.7524065223632248,6.370274861552114e-06,0.3846354166666667
1.31801777580849,0.7622409017308589,5.936385888207676e-06,0.4078125
1.927724841711626,0.8568501423856496,3.408460801783924e-06,0.4776909722222222
1.963984226882048,0.8635771437785377,3.47555948742181e-06,0.4461805555555556
1.868306089620117,0.875735198480394,3.121577724470033e-06,0.3813368055555555
1.55217394203015,0.7608598320617919,4.094696700673962e-06,0.3486111111111111
1.530193515846103,0.6893095260732093,3.608083879761195e-06,0.2864583333333333
1.792462160908772,0.909975352310403,2.961717896232244e-06,0.40625
0.9805280604255848,0.5202874908013627,7.042504455522945e-06,0.3572048611111111
1.267602264915026,0.7176890029224158,6.237400975813388e-06,0.37734375
1.734284652069466,0.8725756839911127,3.308743352537958e-06,0.4349826388888889
1.519093255974972,0.7828571458570155,4.606811983639593e-06,0.3536458333333333
1.577755903418339,0.758907466316423,3.71941226399246e-06,0.3253472222222222
1.58478624274918,0.8230375091614455,4.042354856875784e-06,0.3627604166666666
1.080066337159185,0.7986306401394505,8.20147302273388e-06,0.3461805555555555
0.9252083441971577,0.7626106852551195,8.26565947911579e-06,0.3112847222222222
1.185371808920443,0.64225079222279,6.354831132292437e-06,0.4072048611111111
0.871029641982248,0.6533286764805583,1.012935197278948e-05,0.2946180555555555
1.905084758576108,0.8772141744628834,3.627065728918066e-06,0.4040798611111111
1.943274655453926,0.8699943069212613,3.380318254800047e-06,0.4212673611111111
1.385598034177798,0.6565979051953604,5.334670550103092e-06,0.3829861111111111
1.578710417740268,0.727683909486585,3.388944898970029e-06,0.2630208333333333
1.625266707156531,0.8277473812194918,3.146746627618488e-06,0.3084201388888889
1.579533214426208,0.7631272685364887,3.350896369425673e-06,0.2526909722222222
1.52557850461037,0.7372736686757189,3.499342779177873e-06,0.2345486111111111
1.61337937508912,0.8398044910299582,3.400280559344828e-06,0.2862847222222222
1.682954767958017,0.8237057600692567,2.867359399600556e-06,0.2959201388888889
1.621507124705813,0.8930586204413924,3.156453470577101e-06,0.3113715277777778
1.687056534243947,0.8672519344349424,3.245834169493067e-06,0.3145833333333333
1.280091019441561,0.7895589780650458,4.252755573981753e-06,0.3420138888888889
1.485529376259031,0.7943864105237737,3.504589184809017e-06,0.2888020833333333
1.604824805089685,0.7820781363151788,3.30010518570706e-06,0.2871527777777778
1.580288574802518,0.8655814372242682,3.374329059065375e-06,0.2875
1.555276245915341,0.8644254226587391,3.781376810744384e-06,0.2909722222222222
1.583327983454158,0.8471606909569288,3.622965921210768e-06,0.3001736111111111
1.699489290654434,0.8243078707233658,3.202093127701921e-06,0.3210069444444444
1.452025213739478,0.7505051477711193,4.492377810142735e-06,0.3930555555555555
1.021583199897509,0.6707387150167162,7.685436991799668e-06,0.3720486111111111
1.335518729046429,0.7561313229656134,6.254650119111869e-06,0.3715277777777778
1.860006007607387,0.8465556698960277,4.002391658106987e-06,0.4559027777777778
1.915370778280387,0.8444366211130468,3.882480465422551e-06,0.4684895833333333
1.509244124043919,0.8598983101317107,5.579459885525592e-06,0.4296875
1.847189748511626,0.814118638549802,3.667956145213653e-06,0.4203993055555555
1.305599597876062,0.6610349275756552,4.896728212037447e-06,0.2975694444444444
0.8857110995438363,0.7398332135459167,8.698510555532722e-06,0.3042534722222222
1.867793711290174,0.8766622334108675,2.959226840239435e-06,0.3806423611111111
1.967491827650481,0.8452378864786053,2.99017399768295e-06,0.3987847222222222
1.941383411289693,0.9170974452312328,2.609240973420668e-06,0.4375868055555556
0.9457197826935603,0.6232287433504126,7.513978920648079e-06,0.3565972222222222
1.480285421848366,0.807186964689652,4.728832979249136e-06,0.3918402777777778
1.854035272586364,0.844321027477626,3.607454309855405e-06,0.4268229166666667
1.407502438697686,0.6692599829817946,5.629617761475231e-06,0.4326388888888889
1.104107869414147,0.6657762029619744,7.541274215100182e-06,0.3646701388888889
1.583834101931429,0.8136929081281177,4.658989490959562e-06,0.390625
1.579150728136219,0.8247338198780259,4.64670759081533e-06,0.4457465277777778
1.554526462437183,0.8069629365091716,4.764516058122473e-06,0.4317708333333333
1.982309505305523,0.8651330339473083,3.500406497586845e-06,0.4125868055555555
1.389912043370848,0.6574553865623435,5.797500946341662e-06,0.3706597222222222
1.216396697821458,0.70178557323854,6.321424067194972e-06,0.3533854166666667
0.8320718890235588,0.7477626747626543,1.314236677137911e-05,0.2109375
1.087545423677677,0.7058237044363435,8.451868105901489e-06,0.3253472222222222
1.229795014558132,0.8127962276882693,6.896542118794483e-06,0.3834201388888889
1.007512156818511,0.6806652818363927,9.7651950706828e-06,0.2786458333333333
0.9578212466685866,0.7127344653626337,1.049769445571085e-05,0.2449652777777778
1.144617113409578,0.7640205106894553,7.885188075875567e-06,0.3321180555555556
1.386743839788344,0.8233327478639245,5.759924748532872e-06,0.3805555555555555
1.238086524123214,0.7998307763192511,5.780851690592412e-06,0.3404513888888889
1.217941529894616,0.769413225928754,6.213338126307011e-06,0.25546875
1.22493709548566,0.7705904941987829,6.417448139570013e-06,0.3015625
1.08296325646434,0.6801762573374547,7.330652606022509e-06,0.2278645833333333
1.480092919174144,0.8544416058879017,4.260374202885348e-06,0.3478298611111111
1.828492692733884,0.8806446366264142,3.49062805040006e-06,0.4432291666666667
1.213923055141834,0.7312231540315449,5.905817593001593e-06,0.3553819444444444
1.748479659379461,0.7826282269900365,4.559227890448464e-06,0.3501736111111111
0.8969718264595311,0.6029817127698869,9.089621808917541e-06,0.2736111111111111
1.635124730900571,0.8557858586419583,3.835849684196604e-06,0.3865451388888889
1.365801352860679,0.8077497402828817,5.530644862313078e-06,0.4001736111111111
1.755716177974088,0.8407535424641726,4.081336485744109e-06,0.3837673611111111
1.647824485721302,0.8299111101450212,3.988407192195805e-06,0.359375
1.661243341228428,0.817688797250187,4.065982450413135e-06,0.3526909722222222
1.458295235455096,0.7718874564284456,4.734551100773862e-06,0.3651909722222222
1.785132628740776,0.8729483600528419,3.458537575750811e-06,0.4081597222222222
1.514219637458596,0.8252117879991729,4.576093729182289e-06,0.4065972222222222
1.273736559416948,0.7208348423951819,6.170352898300567e-06,0.309375
1.67357838678014,0.730042107166664,3.816890319723348e-06,0.2848958333333333
1.525266547196735,0.7104675320733558,4.162223970182237e-06,0.2780381944444444
1.099899809363188,0.7885606352453112,6.984394618323872e-06,0.2932291666666667
1.621580336761184,0.7346894723792968,3.826615635168354e-06,0.2985243055555555
1.477251815790162,0.743437050675747,4.166763117877244e-06,0.3620659722222222
0.9574165920839983,0.8078067894870746,9.140435422326296e-06,0.2685763888888889
1.216303354560899,0.7168756041845293,6.183335886820643e-06,0.2859375
1.72591022971084,0.7903549786998436,4.107457868334694e-06,0.3528645833333333
1.260473073435671,0.7572769517098741,5.831675732921632e-06,0.2856770833333334
1.662367909817204,0.8279519189703972,3.464994403002934e-06,0.3211805555555556
1.233014175631256,0.763524297532819,6.196620976461217e-06,0.3402777777777778
1.251918879353184,0.7655972126641182,6.05123249570552e-06,0.3067708333333333
0.9931060002426607,0.7444029766043176,9.233624160614689e-06,0.2933159722222222
1.603286272974545,0.8287997124101466,4.911314093776761e-06,0.3419270833333333
0.8844798945572927,0.5070939432349073,1.080397152078667e-05,0.3030381944444445
1.743139815993639,0.772738817116507,4.136323811838089e-06,0.3331597222222222
1.580604666647435,0.6677228184284613,3.546402149696554e-06,0.2463541666666667
1.461064640182654,0.7158642859173358,3.875576790332741e-06,0.2290798611111111
1.434279492332557,0.6819170625109268,3.79951026988493e-06,0.2301215277777778
1.497044390440442,0.6970855678645832,3.407271947061323e-06,0.2444444444444444
1.021767954122356,0.791190901465473,6.022260435434278e-06,0.2818576388888889
1.466143517674158,0.6815631759883289,3.352139971265762e-06,0.2334201388888889
1.503241862038939,0.7249396108480208,3.72416691942328e-06,0.2637152777777778
0.8354452625070894,0.8128191949503891,9.087270994551375e-06,0.3049479166666667
0.8822056839778997,0.7668710705621509,9.36591204408567e-06,0.2622395833333334
1.010078177180436,0.7962499573976568,9.977778368424784e-06,0.3393229166666666
1.220221618515822,0.6403103852782764,6.486853814384988e-06,0.2589409722222222
0.5736027077823534,0.5790771894045722,1.586482219523645e-05,0.2005208333333333
0.986530845913318,0.7914918127552679,9.41854204273788e-06,0.2717881944444445
0.5836695301095554,0.7074636667865192,1.837686362760336e-05,0.2125868055555556
0.6407052524381871,0.7200049598930415,1.520132793097906e-05,0.2063368055555556
0.6380773943437654,0.7351137219048094,1.455424185612537e-05,0.2813368055555556
1.787683843902361,0.8491612348805198,4.155319637832796e-06,0.41953125
1.486039228514912,0.7454817828039311,5.389486283968424e-06,0.3334201388888889
1.14885812820119,0.6603894561389493,7.000534831092713e-06,0.2118923611111111
1.297693211888422,0.6340103783187538,7.03667978590946e-06,0.2481770833333333
1.395685502548394,0.6126446961995807,5.40985805220227e-06,0.21953125
1.432248998363512,0.6777107370939106,3.785164125827459e-06,0.2127604166666667
1.472997785332335,0.6959362903307961,3.536770194766671e-06,0.21953125
1.566796766275656,0.8761554315359583,3.413248985109681e-06,0.2710069444444445
1.573023293596047,0.846984499527707,3.467217415539048e-06,0.2461805555555556
1.452530520998038,0.8401698777342554,3.927778019785376e-06,0.2609375
1.574725006685174,0.8990585629059912,3.865742146200709e-06,0.3009548611111111
1.508439076240086,0.8564330917576125,3.914678422012411e-06,0.2846354166666666
1.553873744300247,0.8476053364514577,3.535063102531918e-06,0.3020833333333333
0.446779544222574,0.6900242313257159,1.877064476986404e-05,0.2388020833333333
1.534094780947423,0.7379743154897923,3.718564103605848e-06,0.2259548611111111
0.6683774523157379,0.7458420921694177,1.120923328972605e-05,0.2769965277777778
0.5341715191552182,0.8070965185993095,1.524001729236913e-05,0.2678819444444445
1.489581266854954,0.8076848076862327,3.639116572190211e-06,0.2644965277777778
1.643485660172466,0.8447930560098034,3.062477734901824e-06,0.2790798611111111
1.563262340781592,0.8798464478670435,3.539633693713011e-06,0.2999131944444444
1.585356640627362,0.8731013053132882,3.575744286998839e-06,0.3065104166666667
1.754660403901061,0.8994430007828773,3.486251816099762e-06,0.3338541666666667
1.579237872837817,0.8631914927519146,4.093749060823911e-06,0.32265625
1.61335701839597,0.861236287195153,4.350711527534934e-06,0.3091145833333334
1.702214369831468,0.8587457285361839,4.363756315779378e-06,0.3157118055555556
1.798576985200468,0.8827051395290711,4.22499512512908e-06,0.3269097222222222
1.704978976010837,0.8229212695130809,4.895494300500544e-06,0.2985243055555555
1.669933254409962,0.8046177423918677,5.627923227740655e-06,0.2881076388888889
1.579370595030019,0.7768091105071997,5.88894298829649e-06,0.2645833333333333
1.505519600607796,0.7755927566910094,5.884055663845903e-06,0.2484375
1.634153410867439,0.7983059683070373,5.13307067542804e-06,0.2761284722222222
1.684710870992586,0.8210240566193575,5.09177272406563e-06,0.2909722222222222
1.515103554748163,0.751424646654325,6.41451086794218e-06,0.2466145833333333
1.446529990971393,0.7724744758651922,6.218007413190552e-06,0.2592013888888889
1.098883053218595,0.6654873277651508,1.043535167530001e-05,0.3017361111111111
1.342578651571888,0.66281729089209,5.698806774232669e-06,0.2746527777777778
1.414175930443073,0.7406065524105325,5.824376104898085e-06,0.3440104166666667
1.370475118241978,0.8022509680092812,5.652457882338231e-06,0.2875
1.663096775299466,0.8074156359438898,3.541239939837723e-06,0.3280381944444444
0.6971139729548292,0.6711639546488054,1.327475795626965e-05,0.3333333333333333
1.786603241512133,0.8459662439290495,3.912528360059836e-06,0.4020833333333333
1.40726809715023,0.8220956570546798,5.628720687664971e-06,0.3552951388888889
1.274445780008397,0.813729074953709,5.429379515041423e-06,0.3110243055555555
1.471583428767974,0.8174782746084948,4.635094587884019e-06,0.3613715277777778
1.253933152650342,0.7864385447783392,4.770303142508069e-06,0.2527777777777778
1.372029183478993,0.8201906053021571,4.203544043027398e-06,0.2814236111111111
1.547356970597365,0.85339958370773,3.636690164694532e-06,0.3251736111111111
1.564683541557475,0.8567903086490101,3.27173446495268e-06,0.3064236111111111
1.613453697701487,0.8945191574018693,3.189963515960999e-06,0.3138888888888889
0.8490169868513593,0.6760982767924933,7.994849413123084e-06,0.2931423611111111
0.2335049392067893,0.6755578223643091,2.493922254220048e-05,0.2302951388888889
0.3624504753933385,0.6733532729889888,2.471028499304561e-05,0.2862847222222222
0.9160981194683703,0.7656464412653111,1.080910261918231e-05,0.3044270833333333
0.9681624435678112,0.807269041132678,1.111110903132263e-05,0.27109375
0.939722919914779,0.7778800904894496,1.08666985065375e-05,0.2417534722222222
1.041308128711783,0.7676625639379095,9.635829507874783e-06,0.2535590277777778
1.79658793227306,0.856654962955298,4.702277601641848e-06,0.3880208333333333
1.527957720134614,0.8214326874246844,5.899092443464081e-06,0.3900173611111111
1.455026214614644,0.7746719217522513,6.201521687208583e-06,0.3522569444444444
1.491260678566083,0.8282153222128285,6.066319575202005e-06,0.3735243055555555
1.398996327749965,0.6092564987119176,4.178454500779394e-06,0.2182291666666667
1.551846560506354,0.7400684424583607,3.587543905494932e-06,0.2546006944444444
1.631314861244528,0.8285221910640498,3.308426811173046e-06,0.2916666666666667
0.9717911937585539,0.7997364016260422,6.515903800290369e-06,0.3071180555555555
1.503412604517355,0.7266278387878338,3.412112245064973e-06,0.2877604166666667
0.8815034999181106,0.8803049246270906,7.685096504103388e-06,0.3151041666666667
0.9173145782217725,0.6119690279527942,8.512221642975126e-06,0.3202256944444444
1.199427269863501,0.7760673132054497,7.031704175286129e-06,0.3421006944444445
1.713099942712659,0.814180072518545,4.416688522078661e-06,0.42109375
1.544504111694823,0.8819596484429892,5.151869189293275e-06,0.3995659722222222
1.254109932514253,0.7316857448879847,7.079033666347234e-06,0.3809895833333333
1.083018856696855,0.7640856585045105,9.51121391784394e-06,0.3223958333333333
1.569747018812419,0.8383850116337177,5.164264026296688e-06,0.4163194444444445
1.404525499915042,0.8489838644089485,6.399102603809562e-06,0.3623263888888889
1.255721208908498,0.7519705148552515,6.83485857661728e-06,0.3090277777777778
1.64250537273809,0.7201711235096704,4.0571195124169e-06,0.2864583333333333
0.7665168010225895,0.664884188787766,1.077208087092059e-05,0.259375
0.9789273274232747,0.77376110195549,9.950033274345203e-06,0.2572048611111111
1.312769731332612,0.7479241886166079,5.412232169658184e-06,0.3646701388888889
1.296957493446568,0.739886907618882,6.75263924816967e-06,0.3201388888888889
0.4231591344163761,0.5547112117416958,2.268939788320424e-05,0.2615451388888889
0.4696567124700707,0.8608449132620716,1.955067182088414e-05,0.2287326388888889
0.5257201388341007,0.7223624306400876,2.173594657118531e-05,0.1680555555555556
1.572420011617777,0.7491576750525255,5.490572681436639e-06,0.3641493055555556
1.949519092036807,0.8385914941581202,3.503981321596305e-06,0.4068576388888889
1.753989064785738,0.8131226421200575,3.099799412443836e-06,0.3288194444444444
1.480534105812327,0.7282465049555519,4.014329941827174e-06,0.3302951388888889
0.8966974729101074,0.6056743537765239,9.312398316047936e-06,0.3017361111111111
0.7503118638012694,0.7478776987437146,1.24012411863727e-05,0.2171875
1.034070713644502,0.694983144906035,9.566268705202989e-06,0.2221354166666667
1.570807003701272,0.7231766343735644,4.663451484524206e-06,0.3128472222222222
1.843138837561451,0.7795209028265676,3.981983531496062e-06,0.3401041666666667
1.387417916346217,0.6535411716767393,4.43061130651289e-06,0.2230902777777778
1.670842206774666,0.7978360122854222,2.955258150558798e-06,0.2730902777777778
1.55693410759042,0.7847074809006851,3.180278263857225e-06,0.2473958333333333
1.609319346085227,0.802646221290179,3.234668632060364e-06,0.2788194444444445
1.548118354751734,0.8114524249187269,3.339282318563682e-06,0.2515625
1.425043445206891,0.8283114396500003,3.954430614884743e-06,0.2670138888888889
1.532381513477099,0.9058238134846929,3.443185471766044e-06,0.3375
1.622596904800077,0.923234043707105,3.231938380011666e-06,0.3795138888888889
1.652569809551091,0.9479406852900637,2.852653580353891e-06,0.3604166666666667
1.546054454998641,0.9054297792492643,3.089987797910529e-06,0.3189236111111111
1.461711473303306,0.8599730587045645,3.694682678848867e-06,0.32265625
1.446042731155652,0.859980084398531,3.822377399040259e-06,0.3217881944444445
1.467924740727851,0.8835778385822852,3.511850970375544e-06,0.3370659722222222
1.518796538520163,0.8952708402364602,3.67257369857992e-06,0.3447048611111111
1.567425096555164,0.9045199397262694,3.829824450074628e-06,0.3767361111111111
1.673498102796457,0.9079892494058964,2.859901884030259e-06,0.3254340277777778
1.611782296172241,0.9195268726257632,3.256809171438363e-06,0.3414930555555555
1.481493336980152,0.8765475164071954,3.978868019685664e-06,0.3295138888888889
1.426766094853499,0.8296401440975104,3.799199494049369e-06,0.3386284722222222
1.595409703258685,0.8784472537116835,3.386322263779486e-06,0.3532118055555555
1.495674547586862,0.9010850653721709,3.6989599141552e-06,0.3412326388888889
1.518311412501274,0.8993859597739969,3.582320041380781e-06,0.3490451388888889
0.4846628233290398,0.7802633504947841,1.730097599202571e-05,0.2818576388888889
0.6800843476921878,0.717717899658085,1.376274557324289e-05,0.3006076388888889
1.334752744422361,0.641458490720065,6.855499942074047e-06,0.2346354166666667
1.530718115760575,0.7237983617086906,3.761833017637404e-06,0.25078125
1.448868916605884,0.8215303765521103,3.865367468279016e-06,0.2700520833333334
1.59595379211636,0.8986169867527852,3.319538376629671e-06,0.3069444444444445
1.432153149027203,0.8487414817223202,4.097441320092747e-06,0.3040798611111111
1.225334080271531,0.8105845420161798,4.64282364025426e-06,0.2909722222222222
0.9145419380107762,0.7393783785325513,9.543949497265893e-06,0.2225694444444444
0.9341035430465453,0.7157588115916484,1.007408673300283e-05,0.2713541666666667
1.034167239638669,0.6460474133721189,9.263136849357424e-06,0.2697916666666667
0.8724682693061682,0.6344557973040892,9.549712766979769e-06,0.2057291666666667
0.9576697960604575,0.6498617941710925,8.128978370474475e-06,0.2496527777777778
0.9693441900152918,0.7183970427905778,7.912429319107347e-06,0.2385416666666667
0.9198523946455881,0.637232681931739,9.106594080091302e-06,0.2467881944444444
1.028153370464852,0.6768010009481369,7.387570893657818e-06,0.2085069444444445
0.7856659566073372,0.62018985458374,8.645397865776144e-06,0.2684027777777778
0.9235241733642403,0.5647281765995064,9.485880223643565e-06,0.2072916666666667
1.438558397632839,0.6824196995299157,6.29808066714211e-06,0.3078125
1.032864291833777,0.628815572806103,8.432391311773872e-06,0.2815972222222222
0.8289279073461439,0.7443710071642626,1.173538766811692e-05,0.2078993055555556
0.899201177102506,0.7333436795664949,1.056339459939203e-05,0.1868923611111111
0.7710513937777089,0.6995985328156124,1.253429910105734e-05,0.1567708333333333
1.015578297507021,0.713417632209763,7.053469889755588e-06,0.2078125
0.9706260173661401,0.6292949795992223,9.891075309417725e-06,0.1828125
1.028630264384552,0.6475602615297182,8.458281114533413e-06,0.2127604166666667
0.7490214860087342,0.6073665125000967,1.203882624529571e-05,0.1846354166666667
0.7045122395233856,0.6473082254733517,1.191739294962405e-05,0.1532118055555556
0.7903783042454783,0.663099647967887,1.038238827605166e-05,0.2368055555555555
1.011725953291267,0.6038777740226201,8.279031732589499e-06,0.2728298611111111
1.157707914137972,0.703635107368961,6.760622514783894e-06,0.2196180555555556
0.9957221687607435,0.6275870492895284,8.339960069338485e-06,0.22421875
1.432722365502988,0.69016614662259,5.938827868315864e-06,0.2907118055555555
1.724356022704473,0.7442989158015368,4.185314958641791e-06,0.3442708333333334
1.269407317477633,0.659092206474021,6.862001612433654e-06,0.2807291666666666
1.398706277415229,0.6750425058266996,4.109241166207735e-06,0.2196180555555556
1.504992294944519,0.7189970279383463,3.368390445311104e-06,0.2458333333333333
0.8971805590033083,0.5733709342103374,7.639848418204588e-06,0.2278645833333333
0.96574478501671,0.6687013184452354,7.93494238738046e-06,0.1541666666666667
0.9975944843077079,0.6698003186215918,8.281993615201331e-06,0.1986979166666667
1.100523166808976,0.6852984586511934,8.620483871038254e-06,0.2540798611111111
1.497325395799416,0.7395987238897722,4.597743200374937e-06,0.2808159722222222
1.010821436992504,0.6802800032362931,7.518299628756408e-06,0.2275173611111111
1.020272718586613,0.6799943218148614,7.968278925277668e-06,0.2309895833333333
1.099308936034402,0.7173163151586454,9.426391924964324e-06,0.2676215277777778
1.471122660528073,0.711284755002321,5.579115181593585e-06,0.2706597222222222
1.17729950664611,0.6900497078590815,6.916110428037867e-06,0.3096354166666667
0.680225968791221,0.5782616759276158,1.119270824858344e-05,0.1806423611111111
1.328250039358445,0.6733174770551256,5.738471789406605e-06,0.2228298611111111
1.476873224195514,0.6814486060004668,4.623508005164634e-06,0.2502604166666667
1.478836937096054,0.6862812491389794,4.331105516991685e-06,0.253125
1.587796289309237,0.7643234512921679,3.738147198275903e-06,0.2965277777777778
0.8282738819852576,0.7646855234738471,8.999417075702847e-06,0.2592013888888889
1.155803012266574,0.7218877054744548,6.048421118322383e-06,0.2329861111111111
1.239983704432433,0.762594478004957,6.471615726890965e-06,0.3022569444444445
1.063972211157401,0.6971898555434667,8.343938666408095e-06,0.2078125
1.506207303764337,0.6624792351346945,4.934042585340807e-06,0.2356770833333333
1.408325586864104,0.6932304709288191,3.953659277902607e-06,0.2198784722222222
0.9147341082670182,0.5998754786333624,7.783663865506312e-06,0.1715277777777778
1.131216091702496,0.7157169323928871,6.731731384339242e-06,0.2263888888888889
1.507364555451391,0.7331601379714915,4.684569489639043e-06,0.2840277777777778
1.551847056151009,0.7347848978677671,4.471928391632509e-06,0.3094618055555556
1.471947007867143,0.6994104379885598,4.146165565484387e-06,0.2567708333333333
1.434266611713845,0.7447347341862117,9.386930633836401e-06,0.2522569444444445
1.511160732992024,0.758873127742516,8.619371457437258e-06,0.30234375
1.194952173646072,0.7484390218695423,1.119077470760492e-05,0.2449652777777778
1.10978880602462,0.7295947611600063,1.121494054118855e-05,0.2375868055555556
1.377455140638711,0.8016213084837457,9.209778964039786e-06,0.2796875
1.142287242002526,0.7513567571274703,1.148387344327188e-05,0.2487847222222222
1.157813565078827,0.7026452567533301,1.054246734992644e-05,0.2447916666666667
1.196688723487898,0.6571432840617633,1.027601425474804e-05,0.2142361111111111
0.8855788293826542,0.7166326980355595,1.522429366673078e-05,0.1431423611111111
0.8099841915425133,0.6237024473510845,2.299648177849298e-05,0.1373263888888889
0.9372480795747946,0.6481761914286032,1.822288232110464e-05,0.1434027777777778
1.050922053373366,0.6286107189695461,1.51736320348319e-05,0.1918402777777778
1.290634773210134,0.7513527837912151,1.260364217375955e-05,0.2065104166666667
1.223465607251852,0.7851960831952142,1.54018497038038e-05,0.1932291666666667
1.155572835912005,0.7673430362989888,1.600135733811523e-05,0.2252604166666667
0.964887046423912,0.7198603265744463,1.671298077762851e-05,0.2234375
1.514377014888296,0.7339335766534293,9.20652509773841e-06,0.2477430555555556
1.481217647392799,0.7225259131627755,8.744518642063586e-06,0.2814236111111111
1.719087002345642,0.7519614687650954,7.853626836430654e-06,0.3014756944444444
1.719029443035064,0.790922431951682,7.438532533433e-06,0.2890625
1.908687928161686,0.8161195468439726,6.491616077446245e-06,0.3155381944444444
1.667988411426528,0.7897005995066206,7.156742397222527e-06,0.3032118055555555
1.815572200718211,0.7961581247940105,6.948859414667477e-06,0.3251736111111111
1.613068255428874,0.7609564348235872,8.284783545344273e-06,0.3075520833333333
1.658052096540293,0.7713397401812593,7.556246476006891e-06,0.3307291666666667
1.797498691261514,0.828020823755554,6.962587687108181e-06,0.3342881944444445
1.803652831047578,0.8089094017835455,6.77381598419691e-06,0.3183159722222222
1.620277851220183,0.8108965627623083,6.860228317642305e-06,0.3345486111111111
1.648272956172693,0.8037913548892125,7.385299958468592e-06,0.3486979166666667
1.898311046304346,0.850069775919517,6.085237112543902e-06,0.3734375
1.697585574479232,0.8199400314502114,7.112924336504159e-06,0.3669270833333333
1.901630527129201,0.8483957979229303,6.508948735757803e-06,0.3567708333333333
1.872922516102145,0.8473560686584913,6.255260400231771e-06,0.3713541666666667
1.704800876808648,0.8296960457347832,7.133538548114433e-06,0.3694444444444445
1.812782488021282,0.8433641245882199,6.594190693043637e-06,0.3732638888888889
1.851460308919133,0.8667533799341703,6.114357027936462e-06,0.3743055555555556
1.86610599053147,0.8494352686107193,5.951616050144657e-06,0.3729166666666667
1.849060002234881,0.850411038252241,5.966379557607354e-06,0.3693576388888889
1.634058371377803,0.7739941961151491,7.262035233591701e-06,0.3024305555555555
1.989589223796508,0.81491336426318,6.081902697972727e-06,0.3521701388888889
1.038435407716468,0.5237736768425297,1.40045475672623e-05,0.2866319444444445
1.197684242413908,0.6122486399649585,1.210688815009273e-05,0.29296875
1.829083831468434,0.8502415218620563,5.855906729058614e-06,0.3575520833333333
1.742622318900566,0.8108202112885179,6.687012626289883e-06,0.3489583333333333
1.996226981157167,0.8343430251135422,6.003124146780055e-06,0.35859375
1.791758769538612,0.8256373181057322,6.176399377233312e-06,0.3703125
1.743499739332494,0.8426044853938846,6.409835237140916e-06,0.3711805555555556
1.867502931702328,0.8466154900317094,6.193169941847876e-06,0.3703993055555556
1.734136556418645,0.8363380867021926,6.008722989504057e-06,0.34453125
1.884008605191334,0.8927500784879241,5.678110022755358e-06,0.3935763888888889
1.671867313715144,0.7770053817008236,6.821223019903694e-06,0.3196180555555556
1.956323798603701,0.8843005713663775,5.670847329117279e-06,0.41015625
1.671303867507471,0.8415988251504933,5.839388072752152e-06,0.3690972222222222
1.012386842474174,0.6157058088242777,1.234810068165429e-05,0.2599826388888889
1.123176682817363,0.7091289596633211,1.314551554154771e-05,0.2069444444444444
1.595560304263256,0.7908246266960974,7.559170584737812e-06,0.3186631944444445
1.4885278511344,0.7409740305946406,9.359106455935473e-06,0.2967881944444444
1.674131510442267,0.8098609300639774,7.481075458502728e-06,0.3125
1.918294524345307,0.8378194865292625,6.347167206284961e-06,0.3579861111111111
1.742533274176667,0.812626121923938,7.267563598023542e-06,0.3850694444444445
1.572276847085718,0.79870580874439,7.88600147539029e-06,0.3403645833333334
1.102960354744579,0.6945875926024155,1.303346178718415e-05,0.2470486111111111
1.582243970500612,0.7614976326878397,8.270860093052122e-06,0.3414930555555555
1.425759692354219,0.7339627339800399,9.277403129505099e-06,0.365625
1.274122822838863,0.6956041018745601,1.140798222836972e-05,0.2853298611111111
1.39183631070024,0.756249968012963,1.001028271433809e-05,0.2509548611111111
0.9257807402198348,0.7479479233178209,1.574616023344953e-05,0.2129340277777778
0.7055622607767543,0.6568511900385016,2.640937676745549e-05,0.1248263888888889
0.7958087548507906,0.6866476298759983,1.937397159320948e-05,0.1958333333333333
0.9622812446629114,0.6530564059846206,1.628341558904007e-05,0.1947916666666667
0.7595930103340984,0.661438751247958,2.384819645040917e-05,0.1647569444444444
0.6442568067399251,0.7049250733751736,2.472327840661116e-05,0.1650173611111111
1.201478023501683,0.6540185145742463,1.16681050378088e-05,0.2144097222222222
0.9832497369391207,0.6517928658131951,1.550372029000852e-05,0.2203993055555556
1.468465716729064,0.7285796567801209,9.154720684886442e-06,0.3347222222222222
1.57221809613225,0.7119029531552288,8.575582297896175e-06,0.2990451388888889
1.284184460332779,0.6850260369323841,1.090593443129622e-05,0.2924479166666666
1.885465206888434,0.8123765319590381,6.181552320012927e-06,0.3777777777777778
0.9099331488121647,0.5087054769566945,1.669017415131973e-05,0.3056423611111111
0.9629698691905002,0.533993296058525,1.704654651735315e-05,0.2452256944444444
1.830820666520596,0.7955528650604473,6.471542135863534e-06,0.3700520833333333
1.955681903080951,0.8255189171723284,5.975753097127811e-06,0.3884548611111111
1.842397638129924,0.786968118199635,6.120934053170625e-06,0.3736111111111111
1.955345327280116,0.8643983183983109,5.509277164326804e-06,0.4206597222222222
1.772138572527606,0.7816063021808731,6.755893149536945e-06,0.4078993055555555
1.9754796716673,0.832101200803751,4.824957253345549e-06,0.4433159722222222
2.055171801097854,0.8737285820296229,4.538324558530373e-06,0.4524305555555556
1.458569039577366,0.7373057229999301,9.420842141523565e-06,0.4144097222222222
1.468654138065457,0.694826396234482,9.742134572906322e-06,0.3868923611111111
2.054792685271886,0.8849594174053541,4.607606662215979e-06,0.4866319444444445
1.936308236816065,0.8254551604009034,5.515456323923127e-06,0.4160590277777778
1.969750574992793,0.8389434224766548,4.894747706653332e-06,0.4387152777777778
1.948308848586165,0.8332109939991347,5.432993857006626e-06,0.4189236111111111
1.973929854105907,0.8276918754358137,5.109141845650518e-06,0.4318576388888889
1.972008121782542,0.8552647534379819,5.236320507977167e-06,0.4183159722222222
1.901495766813517,0.8191791807201367,5.158721715542387e-06,0.3921875
1.904700347536809,0.8351451003716301,5.731956750381742e-06,0.3899305555555556
1.958831125599627,0.8337666192384383,5.41552911369915e-06,0.4212673611111111
2.036456232991444,0.8882301977315171,4.661150250496685e-06,0.4328125
1.991321050439076,0.847425539691016,5.057614034961945e-06,0.4047743055555555
1.866541638282865,0.8370464504832208,5.343011709379401e-06,0.4248263888888889
1.608324821190191,0.7284761184811792,6.89592583381975e-06,0.3443576388888889
1.763348578687025,0.7602263832332633,6.468385276129583e-06,0.4014756944444444
1.926723764865466,0.8241325334871179,5.614660902571961e-06,0.3953993055555556
1.976881805091733,0.8519415553101023,5.564582040015713e-06,0.4067708333333334
1.941130323684955,0.8400169711642612,5.212431932148282e-06,0.4331597222222222
1.970923670570138,0.8429711311376957,4.881769035020664e-06,0.4014756944444444
1.873950753097436,0.8237583869677021,5.527033839252637e-06,0.3950520833333334
1.79871555207803,0.7847590754041074,6.134671429951896e-06,0.3806423611111111
1.930317223453306,0.8446730398881058,5.413414237686719e-06,0.39453125
1.002546021530798,0.5581387369643972,1.438888543355257e-05,0.3790798611111111
0.977450708177724,0.5424271110849923,1.533486165059042e-05,0.2789930555555555
1.840091746149828,0.7905765699908914,6.787381699713304e-06,0.3784722222222222
1.986367333679414,0.8374018090918014,5.463516045985407e-06,0.3942708333333333
2.057992244974571,0.8850344459857367,4.909295313107584e-06,0.43125
2.03315870432012,0.8693682754795707,5.138615496087734e-06,0.3930555555555555
1.862030477895929,0.793128620357084,6.051214799112948e-06,0.3633680555555556
1.712316460151939,0.7598238614656875,6.710795266237029e-06,0.3448784722222222
1.89756106574681,0.8013018524921435,5.473932899021612e-06,0.3643229166666667
1.01183913301019,0.6461455535281935,1.392348445324639e-05,0.2392361111111111
1.382716449214566,0.667648116749148,9.888122790234905e-06,0.2712673611111111
1.968934175403441,0.8370817456356174,5.590596540567739e-06,0.37421875
1.995571370926279,0.8511201050675236,5.455249544329775e-06,0.3993055555555556
2.030332752367832,0.8800337839630397,5.371933117240563e-06,0.4049479166666667
1.974205234847966,0.8701558692241941,5.166120307051074e-06,0.4159722222222222
1.853726812840219,0.7997773581913399,5.800302907301293e-06,0.3888888888888889
1.864516378137506,0.795491203562963,6.119530968179601e-06,0.37578125
1.40556654694782,0.6376626765395765,9.575728074164176e-06,0.3490451388888889
1.249641512603191,0.632160815335982,1.120404810030086e-05,0.3920138888888889
1.238243344230221,0.5841453364065398,1.115840104626189e-05,0.3854166666666667
1.576338747764128,0.7605726701962252,7.040562104781054e-06,0.3786458333333333
1.588809020013575,0.734625177082222,7.075497968883442e-06,0.3564236111111111
1.605683659589846,0.7063237540077519,7.955748638929958e-06,0.3569444444444445
1.846677971727913,0.8214969845202501,5.624829701684939e-06,0.4267361111111111
1.951014031249822,0.8392410592921988,5.243334039884429e-06,0.4236111111111111
1.89423170071025,0.8232531450363035,5.291588537763196e-06,0.4039930555555555
1.913994652559729,0.8302240219448855,5.470198908808493e-06,0.41328125
1.605520193800404,0.7574918316932747,7.613702483590386e-06,0.309375
1.663344228512282,0.7716050132850676,6.927876357295609e-06,0.3657118055555555
1.97065210040874,0.8488334660235989,4.788610147311361e-06,0.4243923611111111
2.024539637245284,0.8987704374727046,4.604086956125524e-06,0.44140625
2.009094412743085,0.8900647563021838,4.784496341207801e-06,0.4399305555555555
2.046258464137153,0.8986710062375447,4.466617930678164e-06,0.4359375
1.990177243608639,0.8920782475736405,4.891356085734843e-06,0.4315972222222222
1.892681551988299,0.848927077437312,4.92109183294965e-06,0.4063368055555556
2.018803498046495,0.888843727598673,4.35609969129174e-06,0.4297743055555556
2.022209397560234,0.8886135226609188,4.6528507985109e-06,0.4407986111111111
1.969961892047925,0.867423010039068,5.317264764084102e-06,0.4183159722222222
1.833076105304571,0.8205024423980544,5.738994344627741e-06,0.3658854166666667
1.4263468215659,0.7597189723324378,8.268570705344686e-06,0.3755208333333334
1.054434872887863,0.6902806397681194,1.350250367976887e-05,0.3542534722222222
1.230195822120839,0.7151440059628638,1.063645757473877e-05,0.3875868055555556
1.624212763904017,0.7786550482075251,7.114046670796151e-06,0.43515625
2.028418680717705,0.8981916394476231,4.542774607913272e-06,0.4453993055555556
0.9954121772310156,0.6681664646973234,1.423170537192454e-05,0.3077256944444444
1.934120660510003,0.8557572902233315,5.690396775507438e-06,0.4013020833333333
1.771158309233906,0.7902390512669101,6.726655210150478e-06,0.3746527777777778
1.223880377314411,0.6798981178966046,1.165839036447431e-05,0.4067708333333334
0.7337862762687117,0.5976993636159932,2.043704907243262e-05,0.3280381944444444
2.036706913083756,0.8836359697455564,5.153749358508402e-06,0.4374131944444444
1.794230479568293,0.831680837496272,6.338728145693483e-06,0.4404513888888889
0.9421856042486229,0.5500862042913638,1.505216772443209e-05,0.3894965277777778
0.6967364334443472,0.5540287940691621,2.165732071512424e-05,0.3683159722222222
0.3966658709556712,0.5707853254084246,3.09063657027108e-05,0.2914930555555555
1.230661319471502,0.6944649769557554,1.107317120165607e-05,0.3811631944444445
1.826298867189729,0.8398863010564542,5.979127511026315e-06,0.4297743055555556
1.847773865723458,0.8564146296625688,5.997705435212972e-06,0.4375
1.821904201225517,0.7998814063343547,5.821520844615424e-06,0.4258680555555556
2.006469834288231,0.8759568063675941,4.708998299902268e-06,0.4504340277777778
1.113760798378052,0.7887936412596437,1.23041998230853e-05,0.4027777777777778
0.5595764042987234,0.6459013748957123,2.391795025963921e-05,0.2831597222222222
1.208418776387156,0.6395334956919161,1.138898027318902e-05,0.3167534722222222
0.5731463102290003,0.5794738294098314,2.567062268482934e-05,0.3
0.9045577633682942,0.598460167762072,1.750528866210814e-05,0.2953993055555555
1.937445367861218,0.8580084516365112,5.782138624264588e-06,0.3963541666666667
1.880299028858005,0.8226400725387774,5.684194740832238e-06,0.4096354166666666
1.970713955691538,0.8635483358105029,4.947218714529589e-06,0.4246527777777778
1.890937628634056,0.8284959993780169,5.355655575939009e-06,0.3611111111111111
1.934622288824899,0.8428822027956001,5.474889892621195e-06,0.3966145833333333
2.010204656812838,0.8821773031015732,5.03152481040831e-06,0.4311631944444445
1.913240548305053,0.8274488280344146,5.395421216893894e-06,0.3916666666666667
1.968975055391724,0.8824096780570161,5.113379732282857e-06,0.4306423611111111
2.005246190455612,0.8968515433160158,4.730998892565693e-06,0.4369791666666666
1.90192801667722,0.8746095214680374,5.224874644253476e-06,0.4036458333333333
1.661848743816369,0.7756980631046927,6.585601015989901e-06,0.3348958333333333
2.020295768392304,0.8665265086751575,4.727176380639955e-06,0.4138020833333333
1.300981335063996,0.6655245684240471,1.141716698043352e-05,0.3651041666666667
1.977081461752699,0.8907103128580044,5.429612877610475e-06,0.4269097222222222
1.104733647927745,0.6194297486016094,1.319830278198069e-05,0.3373263888888889
0.6882906393199076,0.5527940673731893,2.197638338555598e-05,0.2970486111111111
1.307226754103038,0.6819817635464974,1.019117436562472e-05,0.3613715277777778
1.571387061941218,0.7356073656670261,7.780394327027796e-06,0.3973090277777778
1.914232916600003,0.8771068804575759,5.29457839798907e-06,0.4506076388888889
1.627097267604596,0.7593647922917522,7.448295886973613e-06,0.3544270833333333
1.553885659626322,0.7235982686935246,7.41322909272278e-06,0.4276909722222222
1.590518425956746,0.7327108479616736,7.731447675320304e-06,0.3893229166666667
1.90473042025211,0.8710193333612151,5.455285558637169e-06,0.4032986111111111
1.898502482934098,0.8605812524700336,5.728481487220411e-06,0.4053819444444444
1.825623256911221,0.82094460923323,6.639733425191105e-06,0.3946180555555556
1.9961962593434,0.8844981028843361,4.992172136083649e-06,0.4444444444444444
1.052304875379499,0.5263214800944648,1.431007247255017e-05,0.3895833333333333
1.980683293564974,0.8860973957774421,4.893007906868582e-06,0.4334201388888889
1.927122687590415,0.8849091352588782,4.813313473707066e-06,0.4678819444444444
1.504764915125259,0.7708511602866482,7.826267707002226e-06,0.4036458333333333
1.286775029946253,0.667779940105715,1.065775791945456e-05,0.3826388888888889
1.886624606109147,0.857217146827109,5.672350738882777e-06,0.4315972222222222
1.953601648027524,0.8680597320554634,4.892112977010446e-06,0.43203125
2.053983899826303,0.8884730351615344,4.670728623725032e-06,0.4252604166666666
1.988341232333175,0.8819627016341159,4.836674348037006e-06,0.4113715277777778
1.010536942920184,0.5591086305247623,1.252128938227612e-05,0.4094618055555556
1.026345582088829,0.5947108117816002,1.297249011446006e-05,0.3927951388888889
1.952673578957933,0.8412089694274136,5.287521655153588e-06,0.4002604166666667
1.552254959205036,0.7199758866545005,7.571393538468953e-06,0.3551215277777778
1.496426177319154,0.7691221731216198,7.253769893381833e-06,0.3743055555555556
1.783064071000006,0.8390697305643899,5.848082237717341e-06,0.4047743055555555
1.718694707288229,0.8436245845560387,6.575424319210302e-06,0.4008680555555555
1.675138945493259,0.783517457934499,7.270317472951731e-06,0.3828993055555556
0.8870347760265035,0.6095016987125916,1.954668320889519e-05,0.2658854166666667
1.946088738362618,0.8576991998308907,5.62685707204911e-06,0.4144965277777778
0.8713394432664853,0.6470673563968187,1.565917710134112e-05,0.3785590277777778
0.7159856868083103,0.5728249767654037,2.091260113660316e-05,0.2463541666666667
1.809358121217344,0.8177363118877296,6.359155519129335e-06,0.3792534722222222
1.973550787857772,0.8438357509981986,5.463789270711228e-06,0.3888888888888889
1.827785316297569,0.871274025475563,6.037327080941746e-06,0.3927951388888889
1.861078830480012,0.8551935771634745,5.706671869696223e-06,0.3947048611111111
1.98207764975985,0.9102458263399678,4.612587563627814e-06,0.4513888888888889
1.999492869624091,0.8957755469391309,5.173073409673987e-06,0.4329861111111111
1.936345509551293,0.8739333624807086,4.776844948382682e-06,0.4370659722222222
1.784628364480585,0.799008224120798,6.308735095750865e-06,0.3825520833333333
1.964823615368806,0.8902307525362261,5.177631837599651e-06,0.4277777777777778
1.902908671210471,0.86961368339329,5.080168215906963e-06,0.4168402777777778
2.013083518335993,0.9001383873293499,4.83918502025072e-06,0.4293402777777778
2.016893777301244,0.9185687569830838,4.84925697318531e-06,0.4609375
1.968291215352082,0.9003402419234632,4.617452161686736e-06,0.425
1.177762952371827,0.6395925732095987,1.143873465757625e-05,0.34921875
1.518932357234656,0.7410060486578943,8.559477053378895e-06,0.3796875
1.701612112491255,0.8019788851623194,7.090727833108594e-06,0.3697916666666667
1.519866095000057,0.6991451671858075,8.776688043809936e-06,0.3479166666666667
1.883584260423542,0.8350316650298719,5.302837677808803e-06,0.4088541666666667
0.6856167555974557,0.5231943884150163,1.866956715636151e-05,0.3407118055555556
0.5703746318820893,0.4255450687604937,2.451740325717258e-05,0.3037326388888889
1.473872409396589,0.7530142881054149,7.628466886217944e-06,0.40703125
1.150591052276014,0.7297460198809685,1.26358609277873e-05,0.3529513888888889
1.347337794730733,0.7783174366161493,9.278776645919337e-06,0.3850694444444445
0.7692125978884898,0.6055331953315264,2.081640623586179e-05,0.2909722222222222
1.878724540103557,0.8371213864552158,5.994065355123876e-06,0.4046006944444445
0.7080310236773731,0.560072686161904,2.069079216002134e-05,0.3386284722222222
1.02689025224183,0.6653164031598144,1.334782481218711e-05,0.4151909722222222
1.970946338601527,0.8846843737572787,5.16117505566798e-06,0.4372395833333333
1.878806683364715,0.814531529922803,5.598139133699287e-06,0.4282986111111111
0.7182028704100862,0.5635097140629073,1.999909148335835e-05,0.3345486111111111
0.7913497357582134,0.5710273230105078,1.87511274689053e-05,0.26796875
1.115302523446962,0.6099619655069506,1.505645291139722e-05,0.3059027777777778
0.8338000373789659,0.6278949654307934,1.841244480360741e-05,0.2745659722222222
1.512376525134028,0.725854464690139,9.30391244867367e-06,0.3553819444444444
1.203117837151149,0.6285206384408476,1.344289203329907e-05,0.3728298611111111
1.167853832879071,0.624969640832513,1.262155850341625e-05,0.3912326388888889
0.6724862856813963,0.5816175656143936,2.122968164750287e-05,0.3763020833333333
0.3346144485043216,0.5750657937042608,3.327763615806714e-05,0.1493055555555556
1.376983351770497,0.6309552217367445,9.128058362281931e-06,0.228125
1.731452354396501,0.7571383781447346,7.393334320052702e-06,0.29296875
0.917201164850465,0.490980169403255,1.757279768445984e-05,0.3126736111111111
1.289919484538242,0.6157641186506283,1.084140465573629e-05,0.3513888888888889
2.022649745222974,0.8543715245445245,5.17170950208464e-06,0.4051215277777778
1.06575820889054,0.636462697255732,1.386540005483315e-05,0.3889756944444445
1.977187479088146,0.9103331989201959,5.319651733462754e-06,0.4328125
0.9316287771590506,0.5995781244536215,1.737565336218829e-05,0.3440104166666667
1.421889678009635,0.737443725946521,9.30442343726799e-06,0.4049479166666667
1.870247530663796,0.8443589035281363,5.73857131840123e-06,0.4014756944444444
1.610640152401749,0.727644615788683,8.26236591298909e-06,0.4113715277777778
0.5982930193488665,0.612756374053018,2.474735460711773e-05,0.3569444444444445
0.8348830143343207,0.5589378735477032,1.916212444884509e-05,0.3642361111111111
0.7051211258966233,0.6091402403823671,2.164938187751488e-05,0.3438368055555556
0.5396165988734853,0.6317016669462467,2.647792579416084e-05,0.3436631944444444
0.3659554006386183,0.6032195187035782,3.818673542283355e-05,0.3122395833333333
1.246118179317858,0.7570774793759784,1.169034336920288e-05,0.4121527777777778
2.006225548028253,0.8651839809506194,4.990070284220613e-06,0.4292534722222222
0.7617982777526706,0.6348615006286522,1.93741810555047e-05,0.3828993055555556
1.592560236563649,0.7576776600517401,7.340010886996854e-06,0.40234375
1.055021796308124,0.653054503160148,1.289825977176806e-05,0.4019965277777778
1.086873666117987,0.6835822580965331,1.301214493616678e-05,0.4003472222222222
1.814070027726469,0.8571003607195283,6.226098959877468e-06,0.43046875
2.048195961905973,0.8938327643004844,4.6294951577943e-06,0.4631944444444445
0.9119266070599676,0.6614917408289749,1.618397951864425e-05,0.4421875
1.567447914600773,0.7959939047440785,7.831061544153098e-06,0.4270833333333333
1.612566554005567,0.7422017790040846,7.822992147619094e-06,0.4172743055555556
1.252572965257078,0.7625708305016938,1.105285401730132e-05,0.3944444444444444
0.7031482833048136,0.692317829065001,2.134386356706422e-05,0.3547743055555556
2.002750491902933,0.882858530646475,5.042526253446797e-06,0.4361979166666667
1.904521830321547,0.8675803714426863,5.434249793380213e-06,0.3893229166666667
1.842950481750085,0.8346437192554997,6.376274644587095e-06,0.3809027777777778
1.695878833068099,0.8066714724558334,7.437411088438831e-06,0.3888020833333333
1.994894061664309,0.8579291565039688,5.07005292240329e-06,0.3904513888888889
0.7185631074908573,0.6042352648846583,2.196799803638102e-05,0.3576388888888889
1.233081311086116,0.6739890196821732,1.205565441819844e-05,0.4298611111111111
2.017943444034567,0.850057666197178,5.454837126355795e-06,0.41953125
1.128892185156772,0.6644446683273997,1.253616247190307e-05,0.3842013888888889
0.3037367878767352,0.5820825537043588,3.980465008062096e-05,0.3430555555555556
1.271782811042672,0.616541433277394,1.173803523155841e-05,0.3747395833333333
1.84138809293406,0.802731070596403,6.422372330936706e-06,0.375
0.1862922072490268,0.5844381617897821,5.176101330441166e-05,0.2715277777777778
0.1592570523652376,0.5940342746048918,5.642609033220177e-05,0.3290798611111111
0.1362301685758541,0.6351936156589845,5.536737241934798e-05,0.3121527777777778
0.1981723855639815,0.68914302027553,4.602182037134658e-05,0.3191840277777778
0.1603456299032062,0.6491766184680202,5.292861749365514e-05,0.2861111111111111
0.2103399362145524,0.6227681181123437,4.817520679560479e-05,0.2815972222222222
0.4880705535169647,0.6091465898638879,2.876605238859376e-05,0.3186631944444445
0.3523432907852893,0.6262051953874362,3.642845816969712e-05,0.2730034722222222
0.8956016608072015,0.5349223640337513,1.809600903181993e-05,0.3120659722222222
1.009154100767187,0.6288938898362166,1.739741856406062e-05,0.3414930555555555
0.4472914991784845,0.6038607325658104,3.455583280252669e-05,0.2996527777777778
0.3314101827676013,0.654731699653429,3.83455209919279e-05,0.2981770833333333
0.1833139543637064,0.5906992695634314,5.628936529650928e-05,0.25
0.4331789207960051,0.5987845097413332,3.632211949057786e-05,0.2960069444444444
0.6882545529555587,0.6065176236545319,2.371849733746979e-05,0.3703993055555556
0.6502677344196417,0.524650124233493,2.409235859203215e-05,0.3952256944444444
0.5556883270598402,0.6113664271871242,2.928010510318668e-05,0.3035590277777778
1.918054103770776,0.8276136475909676,6.976284502374579e-06,0.3633680555555556
1.305382944304423,0.6919693097871128,1.222852121411265e-05,0.3606770833333333
0.7059729445495843,0.6106691635084324,2.10700694032723e-05,0.3052083333333334
0.9094189055864855,0.6791792457181326,1.858442997815867e-05,0.3173611111111111
0.5251645473610189,0.5640229334016331,3.155591494087533e-05,0.2668402777777778
0.3457517209379882,0.5812473645846176,4.158844184076344e-05,0.3032118055555555
0.3469496816890931,0.5981876472812689,4.100930698933995e-05,0.2787326388888889
0.2652944352668489,0.6626498674054727,4.662346212245705e-05,0.3046006944444444
0.2517030245271523,0.604123730705394,4.910310535508224e-05,0.2715277777777778
0.3950811317373402,0.5725214812120335,3.956408095599379e-05,0.3009548611111111
0.3108652372419572,0.6004039044932482,4.118115732469437e-05,0.2943576388888889
0.4384445803621765,0.6282561085126805,3.251644067454937e-05,0.3060763888888889
0.4439884367227416,0.6190222333492046,3.342725312072604e-05,0.2926215277777778
0.5846841609409327,0.6476529379217809,2.737347529931618e-05,0.2997395833333333
0.1088649760225948,0.6295827007929485,7.599175849482986e-05,0.2287326388888889
0.1470121386093215,0.6855587739189205,5.749163620175081e-05,0.2924479166666666
0.0630277766183414,0.6839636306717812,7.560782267067702e-05,0.2881076388888889
0.03628824269086655,0.706309796414901,8.759515585758887e-05,0.2849826388888889
0.08531563792470702,0.6691965260162801,7.724107929262034e-05,0.2591145833333333
0.4046329722611872,0.6329021935043179,3.521243384077132e-05,0.2955729166666667
0.1986681343914333,0.6397976102811703,5.771939310261234e-05,0.2373263888888889
0.08969392092999068,0.6466390217628499,7.790042571757902e-05,0.2355034722222222
0.2088483898502915,0.6343238495341195,5.481504145163479e-05,0.2833333333333333
0.1206497575970347,0.6009499416863956,6.519220685537436e-05,0.2478298611111111
0.2720616401390063,0.5083492984293527,4.764389885859671e-05,0.2607638888888889
0.3629789552351853,0.6260881561414328,4.206641653364847e-05,0.2762152777777778
0.07951350791763734,0.6185570101745484,7.62841636360115e-05,0.2594618055555555
0.08780139651886616,0.6520302805123478,8.15980547346753e-05,0.2633680555555555
0.07545334588422578,0.6570562815687444,7.49213910646544e-05,0.2650173611111111
0.4207030190004773,0.6982973131302339,3.41091827756003e-05,0.2979166666666667
0.3731514654761224,0.6425965604127896,3.837800816325414e-05,0.3138020833333333
0.2727740911902672,0.6203448923993329,4.575165738168175e-05,0.3137152777777778
0.5252571970095248,0.6014004107569286,2.851684892737435e-05,0.3673611111111111
0.5539083471566256,0.5900961042020284,2.863617695783173e-05,0.30703125
0.3074521385554765,0.6153195607364375,4.718740677284101e-05,0.2828993055555555
0.08556920953751257,0.6122390141086818,7.299027818477398e-05,0.2794270833333333
0.1331637711664002,0.6170610190897062,7.002768018679054e-05,0.2844618055555556
1.817870275109404,0.847496946704706,6.589914596604347e-06,0.3961805555555555
1.870893552836295,0.8595853692560542,6.367551689728663e-06,0.3799479166666667
1.165905587931239,0.7631255614581435,1.34544989390342e-05,0.3627604166666666
0.1782984514791928,0.6502001088857698,5.970698918965628e-05,0.2243923611111111
0.8059586630955945,0.4787189618255509,1.974794667525693e-05,0.33203125
0.4375793637686171,0.534677240564548,3.461560540943123e-05,0.2137152777777778
1.171456113964676,0.5256446808077018,1.489120880143346e-05,0.2335069444444444
0.7240975491479421,0.5860244794275836,2.144652045513573e-05,0.2428819444444444
0.5261000516049139,0.5401060058465932,2.777541767287901e-05,0.2716145833333333
0.6714204560998969,0.5880124403055651,2.278501233464417e-05,0.3115451388888889
0.4763680201003715,0.6183704775811161,3.131400623318383e-05,0.2875
0.3994632133324422,0.5418876673381801,3.656850251979966e-05,0.29609375
0.2138249784006046,0.6199510064553598,5.606925823837061e-05,0.2427083333333333
0.5240462195038426,0.5334120117300732,2.722925587928598e-05,0.2678819444444445
0.4457604989641827,0.5256875159668026,2.937474416441754e-05,0.2546006944444444
0.3513387799563302,0.5629952490569817,3.725204808490276e-05,0.2864583333333333
0.2351510777800838,0.6017429915635822,3.990001876929972e-05,0.2644965277777778
0.2409777964172363,0.6233031217067807,3.974110850751988e-05,0.2697916666666667
0.2850569654156668,0.5655125442439151,4.013106140323856e-05,0.2713541666666667
0.5429450518432165,0.5774237700982858,2.960986355397377e-05,0.3069444444444445
1.124735631395792,0.7004002698321513,1.5019355038867e-05,0.3662326388888889
0.2442275436664879,0.6633231592708566,5.422056770956616e-05,0.2546006944444444
0.2734707728089855,0.591238097686481,4.559267348333777e-05,0.2885416666666666
0.2171861860023345,0.6242499369365241,4.749648777967743e-05,0.2886284722222222
0.3319842889032191,0.5637574369824074,4.264961362161928e-05,0.2715277777777778
1.419360021154012,0.820580356057521,1.010670110219518e-05,0.3539930555555555
0.3808155017666732,0.7355369574953372,3.780838022503399e-05,0.3075520833333333
0.6690089948257637,0.7550951175306033,2.452481114932462e-05,0.3357638888888889
0.796142659615866,0.7191965844444907,2.045671333725095e-05,0.3150173611111111
0.4475777313647864,0.6227632303740175,3.238957415610047e-05,0.3155381944444444
0.7501072451742229,0.6579318198527367,2.138317865715554e-05,0.3430555555555556
0.8491640649547578,0.7568864138366911,1.909228565885315e-05,0.3375
1.13840419445094,0.7653166202767996,1.431529275184113e-05,0.3874131944444444
0.7267226826756089,0.7108795614589947,2.293849349786248e-05,0.3464409722222222
0.3051945335538894,0.63707602430659,4.166794927983235e-05,0.2825520833333333
0.2481996548203415,0.6130856980634993,4.649403649263011e-05,0.2747395833333333
1.83048674414039,0.8257310305572295,6.623879900968505e-06,0.3676215277777778
1.835548551315869,0.8081272257831961,7.639405096204058e-06,0.3790798611111111
1.764045899867478,0.8210080370186674,7.124926318396975e-06,0.3959201388888889
1.831700542434656,0.8419250653157914,6.982098946108291e-06,0.3893229166666667
1.525317622041597,0.7316207511328835,8.921413913229793e-06,0.3495659722222222
1.633158685716964,0.7612288408321165,8.132389858829994e-06,0.3904513888888889
1.403800975863769,0.6901745947061707,1.075337369630437e-05,0.3719618055555556
1.447678287309082,0.7305217881089006,1.029434408610094e-05,0.3483506944444444
1.58424685910412,0.7719273731110001,8.64937095913333e-06,0.3661458333333333
0.6379485341151396,0.7172679578206619,2.394812680211925e-05,0.3454861111111111
0.8306909869911613,0.589437980847689,1.89211281431063e-05,0.3964409722222222
0.1767538241652017,0.6143630126141892,5.775400497735601e-05,0.2802951388888889
1.38604602731724,0.7958761306770874,1.175859116577076e-05,0.3456597222222222
0.5841251329279935,0.6210732832915137,2.718492621256709e-05,0.2916666666666667
0.7682582019174766,0.6560593339809474,2.081581023775643e-05,0.3415798611111111
1.563552718346955,0.8350900478386285,9.093678526011765e-06,0.3610243055555555
1.054256729880452,0.7570663896024289,1.609579128794973e-05,0.3366319444444444
1.581620291857699,0.8431138743738545,8.71342013962151e-06,0.3985243055555556
0.8837978614611568,0.6657061479085908,1.856798279785404e-05,0.33203125
1.586740515129146,0.8371937630421218,9.109032438611784e-06,0.3767361111111111
0.4927470320719309,0.624880418157105,3.222541656476802e-05,0.3151041666666667
0.3028344356505454,0.6619585786296236,4.118457212565985e-05,0.3084201388888889
0.2094319249973454,0.6054218312508816,6.022108909886002e-05,0.1440104166666667
0.1588700065828292,0.789410440119036,6.78166992260567e-05,0.1810763888888889
0.08278468562077697,0.7715503911854145,7.438747307765592e-05,0.1921875
0.09917248902799558,0.6267538109578433,7.95483566876164e-05,0.1376736111111111
0.2994183979508969,0.8097967819114313,4.605124781708664e-05,0.1347222222222222
0.8816328828618466,0.7180524759999849,2.088840023649644e-05,0.1572048611111111
1.29965133535876,0.7446914009254171,1.285463353526709e-05,0.1900173611111111
1.589678199270892,0.8352875013334601,8.968791873857097e-06,0.2582465277777778
1.747383222275845,0.8748903308295263,7.681271777924352e-06,0.2881076388888889
1.88251994863618,0.8751643758583926,6.666794539745705e-06,0.3207465277777778
1.985846533401671,0.8833430664457484,5.914704323745497e-06,0.3407118055555556
2.0512381306908,0.9109742084705883,5.557148952970925e-06,0.3512152777777778
2.099960945255284,0.9197579392417587,5.574990852398862e-06,0.3931423611111111
1.999996048607274,0.9071474715710461,5.460346350038385e-06,0.3927951388888889
1.995094560894671,0.8940834627571052,5.699789788472567e-06,0.3864583333333333
1.981272111466937,0.8950219449602045,5.506086809220032e-06,0.3714409722222222
1.897727247220966,0.849633954934684,6.355528801913545e-06,0.3869791666666667
1.971204250392844,0.8391023263603745,5.811932202232114e-06,0.4039930555555555
2.050889869680454,0.9092770102516397,5.363513580322698e-06,0.4065972222222222
2.045997688714239,0.9017555380819074,4.592827662808814e-06,0.4172743055555556
2.051310042771459,0.906810837033113,5.097845536713351e-06,0.4019965277777778
1.948969009433041,0.9068843908762985,5.98058355353358e-06,0.3958333333333333
1.872405653151093,0.8552882200291706,6.543760166772063e-06,0.3551215277777778
1.885696108556147,0.8524231260496707,6.470928514226647e-06,0.3504340277777778
1.866937312891483,0.8403221681168456,5.790610464504305e-06,0.3431423611111111
1.796559443583804,0.8136960488214813,6.499670442986041e-06,0.3071180555555555
1.668778090490491,0.7466292808331237,9.09357122458714e-06,0.3128472222222222
1.816277464881722,0.7976888167766836,7.320905342246595e-06,0.3418402777777778
1.855877675123011,0.8075590888581892,6.280745542101064e-06,0.3036458333333333
1.317428101647573,0.7645412128060182,1.128375429357028e-05,0.3152777777777778
1.938499658943906,0.8867290686657132,6.621437286125945e-06,0.3822048611111111
1.817223472178543,0.8925148510414255,5.442074887603486e-06,0.3560763888888889
1.870828676449734,0.9135031756871647,5.585939587025691e-06,0.371875
1.741094904963091,0.8873668647232147,5.692769655141788e-06,0.3461805555555555
1.857243802576315,0.9223201900473764,5.044414252032269e-06,0.3724826388888889
1.857660917001132,0.9274315206335444,5.434417355409371e-06,0.3522569444444444
1.421145746097883,0.7607690347571853,7.955953182226146e-06,0.3274305555555556
1.400201270118309,0.7787629077041245,7.843853076296938e-06,0.3269965277777778
0.6965536296434633,0.4358533610448349,1.816257955735748e-05,0.3236979166666666
0.7398729758251662,0.3885357736208049,1.778978372428461e-05,0.2928819444444444
1.844419629028275,0.9134326618957938,5.081635096004578e-06,0.3567708333333333
1.839701891060372,0.9130962478771986,4.837997793757384e-06,0.3377604166666667
1.853728693901833,0.9176590446490194,4.652790259981517e-06,0.3342881944444445
1.833066984242022,0.9054969783071122,4.832736312741795e-06,0.3410590277777778
1.772434400760497,0.89602726874072,5.1410335313123e-06,0.3384548611111111
1.784382050505511,0.892872362628743,5.117030575949937e-06,0.31875
1.805827292656987,0.900330763542227,4.966240633217715e-06,0.3239583333333333
0.7247686566180837,0.4436961452003816,1.880276045133961e-05,0.3252604166666667
1.865787615320551,0.8073113284227019,6.362117572309623e-06,0.3733506944444445
1.892767353557655,0.8062936634823767,6.291428533399522e-06,0.37265625
1.894750770011814,0.8409095452595611,6.230386188201641e-06,0.4166666666666667
1.144830403916793,0.6535463810521516,1.464864449777121e-05,0.3568576388888889
1.070729015179599,0.6106617662420579,1.426414681189761e-05,0.4091145833333333
2.027403163448513,0.9010021919606865,5.108358634267508e-06,0.4576388888888889
0.6609898530696476,0.5330733389702716,2.442706650014753e-05,0.3449652777777778
2.044241112913672,0.9021257237430782,5.145624706553076e-06,0.4590277777777778
2.038399853293824,0.9103263923016519,5.542631293293283e-06,0.4407986111111111
1.991924990207829,0.8799970083527051,5.677194183985274e-06,0.4208333333333333
2.024048367714936,0.8833213021773729,5.339885732637435e-06,0.4254340277777778
2.059856937432815,0.9005984768758697,5.051780782537655e-06,0.4420138888888889
1.972003783413514,0.8685137798539935,5.266128635324529e-06,0.4305555555555556
2.072845157974664,0.8936479590197127,4.750841663520297e-06,0.4610243055555556
2.094938962690076,0.8865227487165537,4.946357789525897e-06,0.4403645833333333
1.832857430100513,0.8176289947330261,5.774107031844152e-06,0.396875
0.8149783683057072,0.4900302333941405,2.018139875219668e-05,0.24296875
1.182995290713272,0.5794606284045299,1.283435789446635e-05,0.2751736111111111
1.593030140709236,0.679142454711273,8.14828883891808e-06,0.3488715277777778
1.879579538077892,0.8267105424909493,5.830131707613756e-06,0.4074652777777778
1.918955706242524,0.8537267286041876,5.54149365563377e-06,0.4142361111111111
1.925373862218649,0.8242768259065282,5.303711787047582e-06,0.4107638888888889
0.7988181053609743,0.5653396539570984,1.903069049107613e-05,0.3085069444444444
1.099221191180176,0.6625387043229944,1.478779783318233e-05,0.2111979166666667
1.327342531015335,0.6400212213690344,1.117393861235914e-05,0.18046875
1.544511227144126,0.5881829913107821,9.236553204652862e-06,0.2537326388888889
1.44884964138513,0.5620109729564491,9.901255777165206e-06,0.3149305555555555
1.55065783787358,0.5953861103017218,8.384331086844257e-06,0.3385416666666667
1.946839776341747,0.8330101369899698,5.378273747253402e-06,0.3747395833333333
2.024112691311517,0.8852288378110057,4.820980215327999e-06,0.4207465277777778
1.880250820385426,0.8105745102469871,5.837695181259677e-06,0.39296875
2.004142311411683,0.8756503912716415,5.122163421951726e-06,0.4021701388888889
1.958683438154961,0.851636267311483,5.186580713588947e-06,0.4217013888888889
2.030745297530867,0.8861124170052737,4.735390692252607e-06,0.4289930555555556
0.565996454932158,0.4914286625409057,2.360547572861446e-05,0.3491319444444445
0.8231691858948847,0.5627201039508026,1.894194871467455e-05,0.2848958333333333
2.003697455720369,0.8867723079941355,4.896517611707515e-06,0.4100694444444444
1.971003558824806,0.8742700453023688,5.080555692545251e-06,0.4146701388888889
2.017880406167187,0.8805634346254599,4.798833912486475e-06,0.4157118055555555
2.043406167291757,0.8911161901733686,4.870558059900191e-06,0.4164930555555555
2.039400458379401,0.9100083467249727,4.528020164796271e-06,0.4441840277777778
2.029086929767868,0.8906633629542172,4.869620303066626e-06,0.4180555555555556
1.991865130695149,0.8913554849543259,5.156165138253222e-06,0.43203125
2.013766030591625,0.8603630156730527,5.044889943439585e-06,0.4285590277777778
2.012257838472564,0.8894651524558985,4.91044525863214e-06,0.4435763888888889
1.685232309449204,0.7847486105759897,7.259898557013552e-06,0.3865451388888889
0.7929038962131354,0.5128427175169253,1.816433941405807e-05,0.1942708333333333
1.655793399124065,0.7338378186813578,7.346712651789593e-06,0.2856770833333334
1.498694087743156,0.6517525878730966,8.200051990826643e-06,0.2592881944444445
1.520659153004482,0.6778876639719331,7.757048984993024e-06,0.2953125
1.883048229556909,0.7723641902148943,5.969500074686442e-06,0.3191840277777778
1.97491138676824,0.8106538202762498,5.470581205693854e-06,0.3834201388888889
1.755525566071783,0.7975591955731625,6.160424173456662e-06,0.3762152777777778
1.461144698206683,0.616088399814239,8.793347953362563e-06,0.3198784722222222
1.568683431986158,0.6781677380825263,8.132262285907536e-06,0.3639756944444444
2.029986753353936,0.8808237310983058,4.753514941580945e-06,0.4453993055555556
1.62072512089933,0.7354964616303462,7.307499432699282e-06,0.3717013888888889
1.09784220341845,0.596470391191957,1.310529441734634e-05,0.3111979166666667
1.000495013597426,0.546756141713593,1.314919325085711e-05,0.2248263888888889
1.728770525364046,0.7165439497510638,7.413257416750201e-06,0.3345486111111111
1.991465831459557,0.8647525853151087,5.263617324318077e-06,0.3969618055555555
1.933605507011407,0.8039910905903837,5.543876540439965e-06,0.3889756944444445
1.051511091850502,0.5852163621254965,1.189184442434891e-05,0.2137152777777778
1.078833491010343,0.6357113958464151,1.215136476732786e-05,0.2147569444444444
0.8281166125347227,0.6630516934247058,8.60388306264333e-06,0.1553819444444444
0.5309069405465497,0.6634341024871837,1.609923456679096e-05,0.1236979166666667
0.379587153492737,0.431112992503957,1.604065208541176e-05,0.1322916666666667
0.183105760482029,0.2874033864468503,2.736391896153958e-05,0.1384548611111111
1.146620458838397,0.6424948916163863,5.651072601824928e-06,0.1313368055555555
1.133254486098107,0.59273295905538,6.219043927298166e-06,0.1516493055555556
1.170402614251046,0.680634815947001,4.867256228060811e-06,0.1673611111111111
1.458560737628369,0.7110815804872607,3.579956807947739e-06,0.2116319444444444
1.129570299646093,0.695221213301197,4.89316635870931e-06,0.20546875
1.381400062502563,0.6742139723324181,3.850108797744401e-06,0.2025173611111111
1.186442153707889,0.5859527718787809,5.171932492026468e-06,0.2134548611111111
1.496457775564134,0.7746760766257875,3.288808982847357e-06,0.2127604166666667
1.412747095150563,0.707774350429541,3.697812800727311e-06,0.2544270833333334
1.168488489806076,0.5892070243601649,4.715427540795052e-06,0.2161458333333333
1.29578431731484,0.5737115358947787,4.871549455411772e-06,0.2372395833333333
1.347362993846822,0.6083847531868805,4.168720679310579e-06,0.2469618055555556
1.224159592042154,0.4900781607519999,5.354908926607945e-06,0.2232638888888889
1.371753820933993,0.5802719283571807,4.563011578357017e-06,0.24765625
0.7572544512925206,0.6308507573863312,8.158523157164008e-06,0.2082465277777778
1.017865736059663,0.5780562279561459,6.422880427350398e-06,0.23203125
0.9940576646582715,0.5109008935729312,6.499762149247278e-06,0.1684895833333333
1.509574119285893,0.6510937734816521,3.646910812458882e-06,0.271875
0.8029414988495478,0.5620650739292858,7.503266813740852e-06,0.2667534722222222
0.6694122108720043,0.5402011806152611,9.52144599071791e-06,0.2154513888888889
1.304045813345432,0.5237425780604242,4.940634425045673e-06,0.2296875
1.441687181213428,0.6279966083486819,3.868637568776107e-06,0.2575520833333333
1.555354141202589,0.718481734669475,2.968302638986569e-06,0.2505208333333334
1.35410710387227,0.6796070906852045,3.679673542068993e-06,0.2283854166666667
1.284907346485767,0.7076941354929449,4.091664990769372e-06,0.2535590277777778
1.069688045045337,0.5892138943738873,5.322097313978598e-06,0.2160590277777778
1.688478481050351,0.8459511776551819,2.897404793458409e-06,0.271875
1.611520879117753,0.7081701855035282,3.68625091030572e-06,0.28203125
1.479174100783856,0.6410753501292624,3.777601203417552e-06,0.2655381944444444
0.4275297404206104,0.5521718363841265,1.348710327276903e-05,0.22890625
0.2290941172338365,0.4842963371646254,2.331120904270836e-05,0.1392361111111111
0.8954395350513904,0.5735893050935635,6.423394971581811e-06,0.2100694444444444
0.7876726017921718,0.6163678313171751,8.430624824414661e-06,0.1901041666666667
0.4375760653419353,0.6080781739583652,1.407928026775022e-05,0.1546006944444444
0.3063207668191231,0.4226463690101446,1.6780370698565e-05,0.1456597222222222
1.225201371221547,0.6247453891630514,4.754964999828945e-06,0.1837673611111111
0.5548061437055657,0.5781652049135731,1.232298642644246e-05,0.1592013888888889
0.5273615161100224,0.5582804808958955,1.150452695228029e-05,0.1860243055555555
1.488771050803773,0.7193984080651917,3.529986610303302e-06,0.2518229166666667
1.610411079767589,0.7911048047259424,3.343658080619307e-06,0.2661458333333334
1.78866595768519,0.8652945566419946,2.952800606638079e-06,0.3010416666666667
0.3351555682287602,0.4166787776960782,1.522690919909933e-05,0.2271701388888889
0.5999895151915737,0.5399724448774506,9.992391160558993e-06,0.1618055555555556
1.235386466400994,0.6403666517751653,4.551122731059339e-06,0.2150173611111111
1.249193485419869,0.7041421451561065,4.627586310279875e-06,0.24921875
1.331300983583388,0.7657361021487915,4.362350417292356e-06,0.27109375
1.63796175964907,0.6996100003357951,3.368233005531351e-06,0.3010416666666667
1.582339247535114,0.7270035844884501,3.433328230165944e-06,0.2777777777777778
0.8340291004277285,0.5735575707512496,7.993279414117682e-06,0.2314236111111111
0.3122732340880865,0.6269306414131777,1.665751987825176e-05,0.1865451388888889
0.5145078254894863,0.5270369712688653,1.897634413273398e-05,0.09661458333333334
0.417617295765766,0.5909222310137606,1.849560834293191e-05,0.1012152777777778
1.280436116549478,0.7749180657845864,4.237938713610194e-06,0.2162326388888889
1.564093476728005,0.7780030759975958,3.290736767948437e-06,0.2664930555555556
1.302681131488718,0.5599780144863667,4.163234168353224e-06,0.2272569444444444
1.699735107110153,0.7672412623251375,3.077846790249186e-06,0.2940972222222222
1.451238151055654,0.6224605821876067,4.603233544946115e-06,0.2669270833333333
1.459271144141532,0.6435127826766137,4.121283707478855e-06,0.2561631944444445
1.748861429260412,0.8231467730687123,2.812909837337373e-06,0.3198784722222222
1.622977781864821,0.8035114947501057,3.768319406505929e-06,0.3259548611111111
1.666916898972829,0.7632950255760775,3.365490901104681e-06,0.3098958333333333
1.702019935344887,0.8250620545693327,2.810990386989127e-06,0.3185763888888889
1.357635249084888,0.5721403839080051,4.715261220759157e-06,0.2524305555555555
1.475527037729225,0.6410864223657435,4.327132092917629e-06,0.2359375
1.50814574467824,0.7143480860315394,4.077608095060443e-06,0.2404513888888889
1.442524820624613,0.6397522841342563,4.170364299346012e-06,0.22109375
1.479158591378656,0.6765856956187152,3.785551727000796e-06,0.2068576388888889
1.354001435694465,0.6823890355275106,3.530827014934628e-06,0.2251736111111111
1.415931242626456,0.6461545985603073,4.224833279953481e-06,0.2178819444444444
0.7352683578831142,0.6090353730777657,8.806225760041964e-06,0.2368055555555555
0.7475736781322831,0.6218077516194199,9.276843546226433e-06,0.1981770833333333
0.4418809942031097,0.4701874890054421,1.304452383944122e-05,0.1880208333333333
1.350142461447012,0.6512113114252733,4.814413179905369e-06,0.2592013888888889
1.105729207052373,0.4804230215774395,6.252607837605695e-06,0.2293402777777778
1.243999263774622,0.5449282589297968,4.734287991848689e-06,0.2440972222222222
1.387028711585891,0.562533970359188,4.575486109219177e-06,0.2418402777777778
1.146938162567087,0.5538966449754895,5.890035385301002e-06,0.2066840277777778
0.3647823556254577,0.4271813843914402,1.465793906484795e-05,0.1984375
1.147650794607144,0.4853098684376292,5.795593548328088e-06,0.1952256944444444
1.446893760907717,0.6355821522344829,4.508259881343332e-06,0.2546006944444444
1.152029718910587,0.5515370913811819,5.809570169430978e-06,0.2372395833333333
1.470979965352731,0.6734281707004652,4.144449032895581e-06,0.20625
1.453290938626887,0.7217736473535361,4.249102628705776e-06,0.2067708333333333
1.453345508846244,0.7679721780653758,4.187090953143642e-06,0.2107638888888889
1.407055275021719,0.7722284202705131,4.601220927654237e-06,0.2118923611111111
1.412037089695203,0.7711825920274618,4.47392199504998e-06,0.2091145833333333
1.396741624531396,0.7228372151818805,4.531761145208924e-06,0.2091145833333333
1.261703838403448,0.6340965757275709,4.759130572293541e-06,0.1953993055555556
1.215532312106442,0.6587131154898985,5.134670017160879e-06,0.1917534722222222
1.303803792809389,0.7547848523776001,5.296083059257617e-06,0.2186631944444444
1.224925111735636,0.7118370602024249,5.668771674173595e-06,0.2192708333333333
1.21639351909992,0.6656913433552188,5.40618211909732e-06,0.1942708333333333
1.420019279180507,0.7690035279308566,4.808376960726069e-06,0.2289930555555555
1.248306564852456,0.699976777676091,5.953534861857529e-06,0.2309895833333333
1.136398785515351,0.7112739051667436,6.78298441219519e-06,0.2126736111111111
1.231779510898443,0.6646719336007306,6.246647664145809e-06,0.2373263888888889
1.271117838828562,0.6385676994780263,5.076377350089558e-06,0.2302951388888889
1.572299322672916,0.8413769339519029,3.888800065425413e-06,0.2529513888888889
1.578502602766991,0.8268113036719512,3.827250628163092e-06,0.24765625
1.523489867973315,0.8413555722468464,4.540320072299312e-06,0.28671875
1.553054671881447,0.831498655016784,3.655171497030101e-06,0.2690104166666666
1.437773152939967,0.7878622174051961,4.559786359179807e-06,0.2513888888888889
1.332831271083953,0.7152889449945178,4.936443421271111e-06,0.2046006944444445
1.484050019590802,0.7918918505075865,4.819447538831983e-06,0.2266493055555556
1.446909638493072,0.8134637401561039,4.975774330914768e-06,0.2321180555555556
1.366643235346358,0.7685848490905314,5.498884351091247e-06,0.2284722222222222
1.359070996672607,0.7393360512668712,5.230467801597858e-06,0.2120659722222222
1.301155330618119,0.6551843039782854,5.010612154561516e-06,0.1939236111111111
1.259927910785521,0.7352420463887073,5.360410307487357e-06,0.2043402777777778
1.298698037523027,0.7233817884854272,5.514659142855909e-06,0.1844618055555556
1.289026181236683,0.7039202382642221,5.900006290327188e-06,0.1809895833333333
1.362874734688162,0.7211461135609942,5.828544687126576e-06,0.1842881944444444
1.237414333804828,0.6426893416531412,6.59843998222156e-06,0.1620659722222222
1.150507743341794,0.6855599861731388,6.762857270893883e-06,0.1791666666666667
1.216985088087126,0.6672135958523481,6.249726696582939e-06,0.1763888888888889
1.235308713887485,0.6576447081503867,6.841073867976731e-06,0.1836805555555556
1.234563626167035,0.6771550304058254,6.662199686471988e-06,0.1696180555555556
1.266460409686984,0.7213842335909951,6.335011720270146e-06,0.1782986111111111
1.27886337278771,0.7031976043944552,6.529578369620712e-06,0.1738715277777778
1.280410661319044,0.6981187319299482,6.596168136612307e-06,0.1684895833333333
1.297541090443969,0.6990434512922953,6.603790998871352e-06,0.1590277777777778
1.246810847641501,0.6921980119047544,6.605582349658834e-06,0.16640625
1.24765062827101,0.6846234140492021,7.176661955831566e-06,0.1680555555555556
1.247576245470149,0.7008721480640664,6.053625130142826e-06,0.1674479166666667
1.35825451662517,0.7075358940117631,5.646636771950377e-06,0.1913194444444444
1.244378767072827,0.6317048029788223,6.783936347759549e-06,0.1675347222222222
1.148390307466681,0.6681066809038895,7.127246984484853e-06,0.1708333333333333
1.256522976936906,0.6982024166583766,6.093148051762202e-06,0.1786458333333333
1.210255737807987,0.6843733292853925,7.382719423588012e-06,0.1736111111111111
1.226882439832957,0.6994398783365736,6.1385887231431e-06,0.1918402777777778
1.424815471564243,0.7579444640593989,5.386275737074659e-06,0.2259548611111111
1.098645520543523,0.583441660893142,7.674329977826183e-06,0.2038194444444444
1.298758672898562,0.6552887253925723,5.839595905428477e-06,0.1763020833333333
1.21323020716894,0.69093952344509,5.671091392384625e-06,0.1953125
1.199115362274925,0.6952997511917764,5.746219493523342e-06,0.1868055555555556
1.217549829724894,0.6700058872350297,5.713211776683493e-06,0.1776909722222222
1.372189029225338,0.768977022719553,4.935552330736681e-06,0.2266493055555556
1.282418118498756,0.7462483726619121,5.190731553035791e-06,0.2019097222222222
1.388513190838308,0.719418156129629,4.745895971268486e-06,0.2072916666666667
0.2412028806874316,0.4947804681259208,2.182969164217243e-05,0.2151909722222222
1.310540204295824,0.6067859309394638,4.021607799865537e-06,0.2328993055555555
1.362449473735891,0.6338802048357317,5.063594684496561e-06,0.25546875
1.309271409351056,0.6069916743218139,5.171190848202598e-06,0.21640625
1.545851919212572,0.627979265236811,4.332881479358185e-06,0.23515625
1.55066789353681,0.6892551951566694,4.196440246262226e-06,0.2533854166666666
1.294229345581887,0.6148325896416342,4.606731384612317e-06,0.2202256944444445
1.309852176246563,0.557233197292816,4.192660214681151e-06,0.1870659722222222
1.428338530587839,0.6116550875900073,4.573569989959532e-06,0.2254340277777778
1.571311960018992,0.781992381960352,4.014199530299961e-06,0.2594618055555555
1.484898134292081,0.8092894866340659,4.363767859344132e-06,0.2490451388888889
1.319638602269786,0.777468170209558,4.82825852689776e-06,0.2003472222222222
1.318499715897436,0.7357283636436924,4.914964006416062e-06,0.1983506944444444
1.257336599813711,0.7379199704220758,4.992606517119232e-06,0.1974826388888889
1.290161183097242,0.7586697370174788,4.749111603868495e-06,0.20625
1.113915336969895,0.6513649598493944,5.95849219136019e-06,0.1865451388888889
1.224688212304814,0.752768211229971,5.363055224532109e-06,0.21796875
1.106316319071016,0.586793993863784,6.536919678553233e-06,0.1964409722222222
1.074743050601336,0.6560319024659924,5.750814287851355e-06,0.1844618055555556
1.066986811218418,0.6502432666705549,6.222287738733238e-06,0.1655381944444445
1.114599884120513,0.7042453139296312,5.982043096326579e-06,0.1805555555555556
1.26589886122638,0.7278359376270521,5.219586185554814e-06,0.19375
1.459000403217008,0.7619028796848163,4.466698535667067e-06,0.2405381944444444
1.364551409991447,0.7177690679529803,4.227278147635984e-06,0.2004340277777778
0.4082275085010489,0.488566370603768,1.664754042881724e-05,0.2136284722222222
0.9130631054106397,0.5956342962047874,6.368540892473182e-06,0.1904513888888889
0.9165266072880305,0.5201527019636136,8.188232560287891e-06,0.2209201388888889
1.563924894969044,0.6258429473767256,4.23463608694277e-06,0.23203125
1.62898921851647,0.7020867583214444,4.654051734901211e-06,0.2664930555555556
1.357424297155005,0.6269379076307736,4.461678681851136e-06,0.2370659722222222
1.62772387513887,0.7698732490162016,3.973577700368241e-06,0.2708333333333333
1.191861780669401,0.5934606634900732,4.551586345519467e-06,0.2355902777777778
0.08882494786770868,0.3685972027320948,3.750229986661547e-05,0.1334201388888889
0.8089950741146336,0.5822860138406015,8.995408768997652e-06,0.1302951388888889
1.405310550843535,0.6460085074322327,4.446993536916826e-06,0.17421875
1.721516685562798,0.7953867680009911,3.291723189547231e-06,0.2526909722222222
1.258051562614849,0.5240285505710564,5.170002783353031e-06,0.23984375
1.20812488297372,0.50379410530983,5.047489226192865e-06,0.2201388888888889
1.252484269284897,0.5282434388963578,4.609533128887825e-06,0.25546875
1.340911565870792,0.5430549195121824,4.412059904304873e-06,0.2703993055555556
1.276800405728774,0.565161201335544,3.87313240638806e-06,0.2362847222222222
1.376389041087202,0.5741028365705078,4.618630238016756e-06,0.2678819444444445
1.474023048004865,0.6112831765402061,3.925073810265981e-06,0.2827256944444445
1.043870377403173,0.5683142875904577,6.330480702456036e-06,0.2647569444444444
1.198059536794911,0.5017282901923268,5.471281979320202e-06,0.2817708333333334
0.8503408896024197,0.534492787299227,6.714413931349976e-06,0.2421006944444444
0.919430242621185,0.5237147219207682,6.615193777449801e-06,0.2723958333333333
1.250467346293353,0.5020626918433845,5.171691804770224e-06,0.2875868055555555
1.246651606326064,0.5363340178688243,4.431179453975245e-06,0.2634548611111111
1.593543280243332,0.6625688755259558,3.330029740986605e-06,0.2993923611111111
1.647667410511846,0.7564922339771959,3.030912303667551e-06,0.31875
1.049523854552489,0.5053834385871915,5.657271149755134e-06,0.2785590277777778
1.126161779459264,0.4556440105175519,5.866487693658772e-06,0.2529513888888889
1.383048582318076,0.5776547792684664,4.56350871393147e-06,0.2517361111111111
1.568178594598457,0.6643249955095781,3.562373008299598e-06,0.2921006944444444
1.39583533126449,0.6336848374079611,3.994035211435616e-06,0.2675347222222222
1.005490191840616,0.4569556386464006,5.432831503174526e-06,0.2297743055555556
1.022159486998938,0.5116746518261576,5.301521452213342e-06,0.2193576388888889
1.352907543625857,0.5655815358813753,4.332004720573359e-06,0.2579861111111111
1.501873168394572,0.6114681659301512,3.915708006624998e-06,0.2454861111111111
1.353601400111358,0.6565356463821954,3.422902182828787e-06,0.2184895833333333
1.65794847363792,0.7133495568893012,3.122740863591005e-06,0.2860243055555556
1.033344050634932,0.5823145501682953,5.478500921920365e-06,0.2530381944444444
1.410507144635034,0.6054859448238041,3.889804125541928e-06,0.2576388888888889
1.373545388945841,0.6332954791948231,4.029243651136957e-06,0.2560763888888889
1.504239009625557,0.6004423719986289,3.722504394930925e-06,0.2763020833333333
1.516011568511176,0.6198466355301002,3.730331328853794e-06,0.2857638888888889
1.457214723717526,0.6355321458714831,3.193568016860678e-06,0.2673611111111111
1.388914384694944,0.58127208519538,4.183507495448192e-06,0.2720486111111111
1.49992434758597,0.7749071589001943,3.369615654808548e-06,0.3166666666666667
0.7114498389316288,0.4909809379135635,7.516082410041773e-06,0.2125
1.171256488574459,0.4940565296644724,5.19119864775023e-06,0.2439236111111111
1.142196804803505,0.5121236883899187,5.167528448685475e-06,0.2356770833333333
0.5781859591424234,0.4829918927446622,1.056696510844247e-05,0.2358506944444445
0.2218042544346205,0.4778197883597635,1.96165061972477e-05,0.15390625
0.4410743942327316,0.4964802988011045,1.163506063760883e-05,0.1873263888888889
1.260018939267248,0.5306584811430634,4.983201558509142e-06,0.2234375
1.528584656461566,0.6209602035242409,3.974777154214162e-06,0.2623263888888889
1.791803279878431,0.7772740336556244,2.846213379531941e-06,0.30078125
1.507706343984905,0.6186787199590756,3.866011324529923e-06,0.2296006944444444
1.329483063023082,0.5930719874100905,3.705728349628188e-06,0.2260416666666667
1.795621759562194,0.7967684430263989,2.46749986401329e-06,0.31171875
1.569529427410885,0.6526241170313446,3.750326922783267e-06,0.2741319444444444
0.9542679296946804,0.6110230001948832,6.607461672543166e-06,0.2512152777777778
1.568109019875561,0.699318698470514,3.379752887483759e-06,0.2603298611111111
1.532758118861014,0.6937842210021751,3.787731030655613e-06,0.2649305555555556
1.689211989044964,0.7533389360316952,3.077902326710783e-06,0.2877604166666667
1.580287039020185,0.7254276940553364,2.966167301570403e-06,0.2741319444444444
1.602712779529849,0.7742778909575481,2.854534266919951e-06,0.2640625
1.657485624193194,0.8002516176942194,2.968255136864435e-06,0.2747395833333333
1.582260035278416,0.7923477083381621,3.488629921324409e-06,0.2473090277777778
1.149599076324682,0.6623595348678909,4.414853034364617e-06,0.2611979166666666
1.312617360424779,0.6718634933774241,3.678358306371242e-06,0.2426215277777778
1.414727108282136,0.686298728552107,3.876370396295909e-06,0.2317708333333333
1.518858762970551,0.6793625256592288,3.205319669718368e-06,0.2873263888888889
1.499564201288358,0.7028823965556708,4.332716410556463e-06,0.2608506944444444
1.708282596367355,0.8054093465528155,3.066178731131698e-06,0.2838541666666667
1.546106309368247,0.8613970930624455,3.442304477077718e-06,0.2729166666666666
1.369240617015588,0.8477673148243587,4.119935385175864e-06,0.2427951388888889
1.469211093163973,0.7993263069206015,3.882640314978245e-06,0.2339409722222222
1.225088705902244,0.7033349524960415,5.190830504241603e-06,0.2111111111111111
1.38411586670207,0.7947782983035698,4.204348899484881e-06,0.240625
1.260253596793255,0.7358151299522541,5.232678820086723e-06,0.2309895833333333
1.346232882275968,0.742259848634545,4.66224929309268e-06,0.240625
1.37845314370816,0.7943446276937729,4.631478923432953e-06,0.2534722222222222
1.300076718698924,0.7051626614211213,5.202521531550892e-06,0.2327256944444444
1.152939789913609,0.6234256508950784,5.601706229219056e-06,0.2165798611111111
1.345310941871048,0.7507153295183299,4.824121908800893e-06,0.2464409722222222
1.30612987725345,0.6362207759569273,5.731073168941022e-06,0.2416666666666667
1.381453250325888,0.7201912521838021,5.285869586629621e-06,0.2269097222222222
1.339545399778969,0.708958263149818,5.335215395101143e-06,0.2336805555555556
1.309755046824548,0.75372454987429,5.694193830141934e-06,0.2506944444444444
1.129594724946295,0.6621295637945379,6.193134494880735e-06,0.2181423611111111
1.34568955847488,0.7389647772332307,4.981023617330517e-06,0.2355034722222222
1.346097310243171,0.6854954066770792,5.268568903359126e-06,0.2290798611111111
1.332406978198967,0.7150949249049205,5.232257918039673e-06,0.2269965277777778
1.216699028952386,0.6822712423922138,6.31734824242274e-06,0.2135416666666667
1.392397441114792,0.7713652394798471,4.686443944228966e-06,0.2431423611111111
1.436860911613624,0.7584743378752676,4.976196721228645e-06,0.2376736111111111
1.173999630067513,0.6272396831572359,6.585044334800737e-06,0.2134548611111111
1.058661559049093,0.623949000037661,8.090864011075824e-06,0.2008680555555556
1.220833671765504,0.6739198997721395,5.600195735503003e-06,0.2146701388888889
1.211640720920887,0.6595563304844213,6.189713956682714e-06,0.2230902777777778
1.080454863376343,0.6704911799444575,7.179344794577994e-06,0.1997395833333333
1.303752296389409,0.741128243974852,4.904547817176375e-06,0.2360243055555556
1.273402634850535,0.7711794867314886,5.970260256184382e-06,0.2522569444444445
1.240885184749468,0.7349160825730046,5.112925772816429e-06,0.2446180555555555
1.350407090349758,0.7674490404721489,5.034063959569628e-06,0.2462673611111111
1.177217353127043,0.7235882591615035,5.707628652006812e-06,0.2309027777777778
1.032721312129694,0.6444586079407352,6.559138498075237e-06,0.2053819444444444
1.309336681101948,0.6760408575337021,4.049121422673336e-06,0.2227430555555556
1.238618493612657,0.6557752912993222,4.503802766309137e-06,0.2105902777777778
0.8014797197606581,0.6082127236468934,7.615798250120641e-06,0.1587673611111111
0.8399016458205574,0.4827293719217763,7.009924227315476e-06,0.184375
1.294610416768571,0.6359642832915684,4.195050691180115e-06,0.2188368055555556
1.163974578741591,0.7250230014165644,4.78751089824957e-06,0.2165798611111111
0.7023089745947049,0.5853327130256052,8.430976665797264e-06,0.1402777777777778
1.104745179070138,0.6372482221238979,5.051879548396271e-06,0.1964409722222222
0.3395769191404223,0.4686517717020585,1.852676308361746e-05,0.1938368055555555
1.236630105462499,0.4868778974717872,5.240640573228015e-06,0.2471354166666667
1.591668120421436,0.6367655212656632,3.505321471646659e-06,0.2705729166666667
1.443947745161772,0.5418550789361474,4.670953281522087e-06,0.2595486111111111
1.438512679369696,0.6046875592055369,4.855870997440182e-06,0.2544270833333334
1.619361080019077,0.6373193901485413,4.35352659928961e-06,0.2722222222222222
1.454586199416844,0.579893152792702,5.13594033597998e-06,0.2504340277777778
1.436524760746989,0.6185068658953463,4.686332706919629e-06,0.2774305555555556
1.539137627620294,0.630314320918714,3.97210293336307e-06,0.2769097222222222
1.502655259097813,0.6621908357526491,3.782869150901407e-06,0.2861111111111111
1.332039694131373,0.5591793871897242,4.860976129811816e-06,0.2393229166666667
1.331335231004836,0.5226593182393703,4.780553560955782e-06,0.2279513888888889
0.272715541019636,0.4285195072595404,1.922681271136123e-05,0.2296006944444444
1.317404726254826,0.536245493863411,5.180678347269116e-06,0.2084201388888889
1.452236573337522,0.6251089374744296,4.652577531936059e-06,0.2483506944444444
1.338011541588127,0.5900695430475638,5.109719916892832e-06,0.2104166666666667
1.579357011354529,0.6750057035284363,3.829594104699379e-06,0.2652777777777778
1.395179162961407,0.5831690920961314,4.266331435182441e-06,0.2328125
1.44329078894198,0.6357585962681775,3.836543667460583e-06,0.2214409722222222
1.266061602096164,0.6018773242456213,3.960977017059733e-06,0.2014756944444444
1.466639401708379,0.6491774953528371,4.0361274731105e-06,0.2546875
1.462652416675054,0.7484367753669724,3.779220014468295e-06,0.2707465277777778
1.271240718215584,0.5746449470848841,4.46639253795625e-06,0.2176215277777778
1.415975164800632,0.6299855683527625,3.669532436064427e-06,0.2318576388888889
1.470784916871854,0.7052470847593054,3.794456100441503e-06,0.2371527777777778
1.439597326804549,0.6244735665768149,4.336817001974493e-06,0.2473958333333333
1.487020492363938,0.7422241337761086,3.794779660705704e-06,0.2373263888888889
1.473367470471086,0.7237409749796733,3.95573332047273e-06,0.2308159722222222
1.292847240038652,0.6914723601345052,3.933753171470864e-06,0.2174479166666667
1.481702038898434,0.6644320178525502,3.380622570199201e-06,0.2336805555555556
0.743101542784933,0.5837082118098181,8.641471026304775e-06,0.1893229166666667
0.4267145360990852,0.5132358472096914,1.333743374943693e-05,0.1894097222222222
1.651563484161334,0.6528704890788103,4.363778813718064e-06,0.2499131944444444
1.515224571666517,0.645721483404394,4.572690352706193e-06,0.2370659722222222
1.339358056519425,0.7117204644530234,4.389653542373945e-06,0.2005208333333333
1.461210501506881,0.7354861005673676,4.254307708636988e-06,0.2277777777777778
1.334611239345022,0.7014611977464525,4.451109752579168e-06,0.2032986111111111
1.426419216332781,0.715257862603895,4.169380862547997e-06,0.2026041666666667
1.338394507384922,0.68769996199109,4.322429306667119e-06,0.1971354166666667
1.455382711368474,0.7943049261460753,3.897157911664016e-06,0.2263888888888889
1.368592955143064,0.77065594749185,4.149140965521737e-06,0.2231770833333333
1.33869432218731,0.7043311471025985,4.732126827053557e-06,0.1981770833333333
1.487310340848657,0.7394941259482722,4.280169810949053e-06,0.2236979166666667
1.401680411995436,0.7704053731567052,4.64491049579227e-06,0.2198784722222222
1.369332711087882,0.7725985334187295,4.633036373781881e-06,0.2300347222222222
1.368757599562354,0.7449577371976608,4.251483573600372e-06,0.2279513888888889
1.312863019372688,0.741862552513339,4.873433021804408e-06,0.2243923611111111
1.321750299814719,0.6471286173463535,4.799547396184228e-06,0.1984375
1.481907210449518,0.7421721710742282,4.568607828380516e-06,0.2359375
1.390289838824949,0.7899430537112158,4.94052076516267e-06,0.2266493055555556
1.48107096389094,0.8110155486295618,4.642296871342215e-06,0.246875
1.379478792083986,0.7821767084880908,5.585281326504797e-06,0.2381076388888889
1.371935831745465,0.7111044389292368,3.929391380716761e-06,0.1837673611111111
1.576707106626743,0.8430351900528302,3.774824896322343e-06,0.2631944444444445
1.506476571232141,0.8207834931160678,4.280805204865061e-06,0.2608506944444444
1.44436625344888,0.7713881952546248,4.667205475547789e-06,0.2619791666666667
1.30653469638971,0.7610920163744214,5.056984695851463e-06,0.2457465277777778
1.397897060542853,0.7758434593917419,4.649291305323886e-06,0.2323784722222222
1.329745037067856,0.7837894737878276,4.710036585429197e-06,0.2556423611111111
1.597375414118427,0.8406478778399149,3.927257496900787e-06,0.2777777777777778
1.519844845834532,0.8120312872410876,4.386538393697334e-06,0.2640625
1.426949523986032,0.7828049188442067,4.684024711513874e-06,0.2361111111111111
1.389528521773574,0.7550450102746572,4.762816509799478e-06,0.2262152777777778
1.262852365978707,0.7344410106286391,5.746080628295069e-06,0.2068576388888889
1.512158541692365,0.7995851119942397,4.036168382615967e-06,0.2432291666666667
1.460691618808999,0.7717498758060657,4.671631662398635e-06,0.2227430555555556
1.424401004208512,0.7536309576659929,4.865270657939279e-06,0.2275173611111111
1.409686695390335,0.7734395216507118,4.914965280863679e-06,0.2125868055555556
1.357327767996756,0.7447384766780034,5.391374813588683e-06,0.2111979166666667
1.273019530234859,0.7107069739822778,5.99012216875589e-06,0.2173611111111111
1.390693169868475,0.7905887345827416,4.711797868196195e-06,0.2271701388888889
1.333358233194044,0.7840643033623429,4.995209081077918e-06,0.2136284722222222
1.444567200689821,0.748965470887876,4.537708921593142e-06,0.2154513888888889
1.439440594014707,0.7856444354180003,4.453705741890782e-06,0.2276041666666667
1.488296583571171,0.7874819355706404,4.620836465348333e-06,0.2234375
1.390176976733658,0.7411399412916759,5.630188880792014e-06,0.2234375
1.291669942358937,0.772880415901851,5.502820323648813e-06,0.2485243055555555
1.140502537291262,0.720204598541,5.595116687234541e-06,0.1988715277777778
1.272705207806113,0.7635793712000863,4.900643337362399e-06,0.2240451388888889
1.489468775960354,0.8340154930740079,4.431322216446001e-06,0.2657118055555556
1.254533562338803,0.7710529248920533,5.610467517782692e-06,0.2326388888888889
1.194174878593592,0.74683202779164,5.550319037191242e-06,0.2341145833333333
1.376010159306762,0.7937829531287149,4.331152366090448e-06,0.2331597222222222
1.219098537962849,0.7704961254203792,5.06658022519713e-06,0.2116319444444444
1.262907758258452,0.7607207242426389,4.666065752084018e-06,0.23125
1.210322199548707,0.7235966967419043,6.410462138008239e-06,0.2414930555555556
1.129732670004042,0.6844244427924128,5.496471393722161e-06,0.2383680555555556
1.540855036724468,0.7973670941133152,4.095235738821881e-06,0.2756944444444445
1.527475687327229,0.847425178966804,3.762704601224324e-06,0.2676215277777778
1.51366689491005,0.8566527796430339,3.604395711123092e-06,0.2965277777777778
1.435720905768283,0.8256113654703017,3.832141419968585e-06,0.2565104166666667
1.372867198201834,0.7819102731090954,4.158724877256397e-06,0.2495659722222222
1.133353996778777,0.7443556975590757,5.249960589448663e-06,0.2500868055555556
1.2050905600596,0.727595768703019,4.89676612340091e-06,0.2404513888888889
1.253877175952317,0.6971852590521682,4.74331428209695e-06,0.2701388888888889
1.303002806973193,0.7104862086815867,3.998592148471118e-06,0.23671875
1.243926077029637,0.8077457038256856,4.498325925738007e-06,0.2649305555555556
0.9362914392096339,0.614161993484406,6.558793431906282e-06,0.2266493055555556
0.9811978521394776,0.6149582349581663,6.448173431406359e-06,0.2335069444444444
1.11828980906701,0.6577434868101268,5.003238778625558e-06,0.2428819444444444
1.03304719106541,0.6448009335505603,6.026495477543191e-06,0.2301215277777778
1.127129800027179,0.7058789254795917,5.146022162621964e-06,0.2408854166666667
1.402520202366718,0.7677992994785654,4.302451952543349e-06,0.3011284722222222
0.8515324007913105,0.5339571342035261,7.014689490364006e-06,0.2236979166666667
0.1432620857371074,0.3311769971454148,2.414751660594944e-05,0.1533854166666667
0.1544796334102303,0.2949426084472445,2.130870652970872e-05,0.1213541666666667
1.428000551833887,0.608741962937404,3.517382860467501e-06,0.2302951388888889
1.57858979699249,0.7021372634457199,3.03139419562341e-06,0.2651041666666666
1.342359763738113,0.6422922177279575,4.078816406822241e-06,0.30859375
0.954546394305629,0.4732144187556034,6.660651146764166e-06,0.2552951388888889
1.650794264248752,0.7044130595824877,3.943512835455491e-06,0.2809027777777778
1.681189377821687,0.6265391098682171,4.213531426977949e-06,0.2736111111111111
1.607975399228348,0.6925871953015177,2.881461015207105e-06,0.2894965277777778
1.430877709674615,0.5901351379913186,3.502349916418104e-06,0.2589409722222222
0.4286156504990947,0.5331580133722892,1.22645377107645e-05,0.2229166666666667
1.113180641242633,0.5750172496581686,6.106420636762619e-06,0.2479166666666667
0.9734657189935906,0.5065082303372255,6.847166873065331e-06,0.25625
1.568710621437251,0.6860798417399046,4.113380176638887e-06,0.2807291666666666
1.223473219053482,0.6205677159707358,4.915991035369816e-06,0.2381944444444444
1.804702435177567,0.792206752484058,2.775699163307898e-06,0.3220486111111111
1.648827618250686,0.7242958149346721,2.900355055533369e-06,0.2779513888888889
1.664093999063493,0.7167749008027532,3.18419612554889e-06,0.3026041666666667
1.420733495720206,0.6990383746808034,3.484733354721709e-06,0.2934895833333334
1.616903819881511,0.7559693929381086,2.7386077931799e-06,0.2740451388888889
1.688487809691135,0.7731213763408876,2.853363774763035e-06,0.3145833333333333
1.658020681826833,0.8215448929991597,2.798991733168139e-06,0.3005208333333333
1.752631708184253,0.8116303301356536,2.4053949909329e-06,0.3146701388888889
1.54316878803795,0.7322693899333645,3.683477446623166e-06,0.2777777777777778
1.47353189865197,0.735667451950861,2.931738842715458e-06,0.2736111111111111
1.788615050729691,0.7999476357085502,2.525053162458953e-06,0.3238715277777778
1.818094598878356,0.8245463977680022,2.747708753609179e-06,0.3422743055555555
1.068228947383266,0.5939350703179067,5.313343030711514e-06,0.2479166666666667
1.541983612177192,0.734845764596218,3.471225695432003e-06,0.2417534722222222
0.7485394761717985,0.4670587042666615,7.435013587106604e-06,0.2434895833333333
1.577699696193437,0.7230619691222591,3.364332257236069e-06,0.2482638888888889
1.737838777954016,0.8121338186555157,2.667269406724182e-06,0.2949652777777778
1.634757361799784,0.7737534170294592,2.684240240033174e-06,0.2989583333333333
1.562012629298637,0.7720048256827672,2.77203940577051e-06,0.2658854166666667
0.6513228986230469,0.518270468920801,9.957982872929222e-06,0.2479166666666667
1.390532755008079,0.67128932505403,3.876788355083318e-06,0.2815104166666667
1.64854883963427,0.7276463183011925,3.353962364004299e-06,0.2894965277777778
1.112856419736845,0.6034124258284623,4.901963489117408e-06,0.2319444444444445
1.398143787446524,0.7016660930520806,3.795148411280168e-06,0.2719618055555555
1.736210132807426,0.7389788939109403,3.119625758168635e-06,0.3140625
1.781459015449395,0.8027734721233144,2.789729279012308e-06,0.32265625
1.214749579439491,0.6227743510162386,5.548693759759139e-06,0.3248263888888889
0.7439867561884563,0.5542732700341855,8.94715071124805e-06,0.2236979166666667
1.21834931498334,0.7365972779882747,3.889574647450789e-06,0.2035590277777778
1.677150970668643,0.7345312798828898,2.977345902955957e-06,0.3092881944444444
1.51892273133373,0.5859825361087888,3.896213258450777e-06,0.2878472222222222
1.460982824272003,0.618181688448312,3.880720888025067e-06,0.2641493055555555
1.239980713895584,0.6554023534886922,3.804205765581638e-06,0.2515625
1.393053396595247,0.636221959769352,4.417470936558302e-06,0.2761284722222222
1.30530652681692,0.5513346319014001,4.251101880097384e-06,0.2577256944444444
1.137456399753179,0.5667629734798486,4.410328275624482e-06,0.25859375
1.518135189100184,0.6381765586277464,3.940103540887631e-06,0.2743055555555556
1.498375137616279,0.602217738293113,3.786004510581533e-06,0.2750868055555555
1.332401003595851,0.5406317418060023,4.637960137868572e-06,0.2453125
1.128357045274144,0.6289255787887038,4.348656347631278e-06,0.2587673611111111
1.459039512276502,0.6007318608276848,4.266983050495773e-06,0.2223090277777778
1.466697796217853,0.5987506032078608,4.133810003973033e-06,0.2395833333333333
1.487859866645665,0.6464573845712333,3.887828793191128e-06,0.2346354166666667
1.386877822507133,0.6304421377034,3.834158811545085e-06,0.2376736111111111
1.424674161775032,0.6951700791684167,3.606310014593224e-06,0.2368923611111111
1.55377852928984,0.7121191179012737,2.712115296977092e-06,0.26953125
1.319088446561787,0.5898404556105042,3.724323080129502e-06,0.2267361111111111
1.351856292643652,0.654202586340648,3.86722190552824e-06,0.2486111111111111
1.367229576377483,0.7862918535965242,3.878795443610196e-06,0.2547743055555556
1.308156339373399,0.6936817867047658,4.190716940132659e-06,0.2407118055555555
1.225465779354787,0.5487496475289447,3.357656014376383e-06,0.2230902777777778
1.26947637163798,0.5516290700839772,4.245666695307131e-06,0.2272569444444444
1.216238054285107,0.5524585994687851,4.207077553340789e-06,0.2729166666666666
1.638001353472122,0.7359104270435869,3.650839288817181e-06,0.2999131944444444
1.666776773925006,0.6852186589678786,3.927161052605457e-06,0.2973090277777778
1.511552078514413,0.6520004797077447,4.463651410114847e-06,0.2549479166666667
1.605334590764439,0.7098978313357355,3.428574383094948e-06,0.2772569444444444
1.581233308215682,0.7105541161202265,3.374661697265005e-06,0.2636284722222222
1.479835270636286,0.7290604108094442,3.542590024139207e-06,0.2290798611111111
1.417776034238011,0.8075082199333075,3.895922631427486e-06,0.2444444444444444
1.315149824318671,0.7936348214008526,4.105571197675458e-06,0.2509548611111111
