sample_entropy,shannon_entropy,rms,emg_activity,emg_mobility,emg_complexity
0.9769579822151738,0.8465219665368594,1.556362204501713e-06,4.00346484347326e-12,1.334744328153505,1.253159072602321
1.392633482821019,0.7973623945644086,1.579307930750752e-06,1.157952530339996e-12,1.343481185725111,1.254800133145777
1.456201003630495,0.7936732545868072,1.581515952441037e-06,1.180722897698017e-12,1.309439311967645,1.265898190034437
1.151579786561194,0.8110895885113178,1.10006919550298e-06,6.417717148865495e-13,1.325658593024566,1.24723970415857
1.211772606484607,0.8090646885174219,1.140370481007622e-06,5.622058032332987e-13,1.35199984019887,1.237969019782636
1.351908691125392,0.8168378196799801,6.958066107519786e-07,2.823994015261769e-13,1.353957755678815,1.269794140371383
1.77443626755841,0.8192377854819357,4.403830851428911e-07,1.586959480394007e-13,1.331871747402396,1.313894219606924
1.609660652025923,0.8168251182679953,4.302098086464987e-07,1.101128699225795e-13,1.3214361937796,1.280459237762228
0.5239956784705754,0.8109310410759177,1.849031107152237e-06,1.215962667700604e-12,1.320298843566472,1.273343766003842
1.352708103990578,0.7079150975069041,6.262628477714728e-07,1.014652841000461e-12,1.332153762009595,1.234476185309929
1.638119401520837,0.8019106055454274,5.161611644147554e-07,1.770934706102168e-13,1.271466514368096,1.391388530323573
1.395856366338,0.7788240100386334,5.299516262936396e-07,1.253489192118993e-13,1.33332067527677,1.274352564447905
1.439793865287182,0.781862096933251,5.26656830460705e-07,1.313414813328735e-13,1.30529336560497,1.304546497686811
1.582997226006155,0.8128372001837904,5.496353256625909e-07,3.283108790359916e-13,1.367624912631039,1.22308621483687
1.694240135085022,0.821340440223171,3.844715523460685e-07,1.034681882467436e-13,1.372335931297711,1.231472980556653
1.748619473791296,0.8261611834438225,3.607325762574844e-07,1.247727921080288e-13,1.342941634575147,1.243024031932802
1.201603909471221,0.7012117624660027,6.267914474650756e-07,1.15108296433849e-12,1.420928125428649,1.184191729414383
1.740179343646266,0.8322816075939737,3.05944641991409e-07,5.658804937084001e-14,1.329738178324443,1.293613030064502
1.649910246152189,0.8137379247651593,3.281757556154351e-07,7.694777209488929e-14,1.360994708154281,1.240318866968134
1.689338320290958,0.8222193423303352,3.224205785470828e-07,7.854689110764796e-14,1.351144039969245,1.251608657645993
1.583094705882928,0.8243807602981433,3.273119459346252e-07,6.270278187351331e-14,1.387751746591363,1.241383145915409
1.668528804540581,0.8180212386328043,3.571719821462669e-07,1.168925564013845e-13,1.294461689036973,1.410569779241149
0.425957470231207,0.7488476074001597,1.647425727399344e-06,6.367836169783875e-12,1.459013784580806,1.169772832739511
0.4173972593073755,0.8029919486802913,1.482511342055097e-06,7.959276047546458e-13,1.292476151450138,1.304703772451765
0.5176369087746511,0.7975252019794024,1.453361125486592e-06,7.654176841797153e-13,1.293266609538408,1.296400654844621
1.691127726311556,0.814884911921659,3.438580322652182e-07,8.13019582770869e-14,1.291478561383188,1.354298906969655
0.730186241849691,0.7964613892874876,1.206099570182661e-06,5.60952242519623e-13,1.301774658408221,1.330346487610054
1.441610202488148,0.8034237686516338,3.798149850661119e-07,6.769418470244436e-14,1.35000652002395,1.254759642324331
1.420442756276279,0.7977564585272573,4.279462590415724e-07,8.330493969279607e-14,1.342777341949256,1.244786075646038
1.32980555521652,0.7927702831801259,4.424296786914319e-07,8.21673255324182e-14,1.356209962333009,1.256190347013404
1.219908716835677,0.8095415933124106,5.813397012209262e-07,1.897414967633009e-13,1.41873549080649,1.199682834986105
1.189596829086757,0.8243744045226166,4.817088351507003e-07,1.503623601099678e-13,1.416588695390376,1.215506893537666
0.5491401397121465,0.7718128949247195,1.136143510669447e-06,4.718752883668285e-13,1.337570877358291,1.245409672491285
1.378091589993719,0.8178554988050949,3.562739961108694e-07,5.660795924562227e-14,1.411201588130388,1.191949874283837
1.421705028591749,0.8122241163233254,4.010989329062069e-07,7.520417952766163e-14,1.390786040769521,1.215229749053212
0.8690854485209341,0.8120384633061863,8.06818290422125e-07,2.571180732277534e-13,1.361283753461207,1.259676686423171
0.3604893795097702,0.8097968352919603,2.197939940842652e-06,1.70580627441222e-12,1.372812058073139,1.227966097853592
0.5888635565601241,0.8007969268069912,1.255548957234778e-06,5.731450185866731e-13,1.339276455130012,1.26370010062561
1.031673691112069,0.813832273638879,5.920542029508326e-07,1.555660753890339e-13,1.361750139593036,1.231246244890542
1.619159945683056,0.8365935278646702,2.857311847509115e-07,4.019381190305869e-14,1.384073781184391,1.220533335362319
1.310811283152106,0.8348891357551189,4.245134848603502e-07,1.00984965597209e-13,1.428467641921397,1.184778479973175
0.448818023047871,0.7946729613197845,1.363221135443614e-06,6.629630387378972e-13,1.354816161222205,1.241636456296774
1.766955087003417,0.8248893427295652,3.128342487511262e-07,8.787302690709489e-14,1.307504488857226,1.43387308926727
1.760031606133331,0.8254600638634289,2.728208015386033e-07,4.696081640671379e-14,1.330094181914568,1.339986082118923
1.45489428911885,0.8053070604986163,3.393163973976605e-07,5.584164551939053e-14,1.356931707377792,1.250725696404488
0.5193364217339399,0.8003193872836267,1.150398937057199e-06,5.005638345021581e-13,1.403515159569676,1.217091824245183
1.660245016055015,0.8201125669381685,2.87726550284527e-07,4.459765209622503e-14,1.381883968767251,1.230786932313997
1.608577089422563,0.8245985473871033,2.654354061231976e-07,3.530947034940236e-14,1.374638208667792,1.218473828674012
1.613986318980108,0.8279263305259266,2.641907034909022e-07,3.931640842894916e-14,1.391695337680557,1.212405673846333
0.8992616940636037,0.4685990716839895,7.395429239739778e-07,2.427975568986524e-12,1.381017030170419,1.194116658066328
1.543916809663289,0.8155360752463405,2.975669082263499e-07,3.94969357740119e-14,1.375415753708521,1.235639676292434
0.6521683230693376,0.824749057127899,9.525185698164506e-07,3.765308160040024e-13,1.479849589079698,1.177313845414417
0.4366897771874771,0.8283210707345678,1.337137330860955e-06,7.075513845747639e-13,1.46198855188488,1.171564882338173
1.137612310245278,0.8278995875494387,4.783923653440729e-07,1.005860618398817e-13,1.400219209026365,1.196873650940452
0.7281460238280597,0.7742385400285741,8.398335713625392e-07,3.022259410516497e-13,1.368837136889402,1.202001275464936
0.3980554180785158,0.7955061052203714,1.964390079286102e-06,1.420727499487004e-12,1.386900208455683,1.228716462333163
1.114297182417419,0.8086700577008289,5.209544219562028e-07,1.064219966053652e-13,1.371521471785744,1.23320409994079
1.547037727370256,0.8116345159553479,2.873676209481111e-07,4.152119893693611e-14,1.369890000584759,1.236419585126066
1.434459503883663,0.7914634354157919,3.310798403597213e-07,4.899731519073761e-14,1.342961159088052,1.253616556313804
0.5661831490782339,0.7972179329314133,1.118533942541307e-06,4.579897751509167e-13,1.277918461887926,1.285253420085381
1.115762947484935,0.8025325851671409,4.842595522942429e-07,9.278667606987014e-14,1.417365345542537,1.199062634719332
1.268546662823075,0.7803003211355659,3.861516873652658e-07,5.771808606127652e-14,1.326468936229084,1.264560518942912
0.7522060309960724,0.7984858187600763,8.834224385341181e-07,2.812755901270692e-13,1.375298715885636,1.226960261591949
0.9723860208580531,0.8086783901963424,5.061393882518111e-07,9.858275165648247e-14,1.367247130567199,1.221265549022753
1.335852925860919,0.8222832820223568,3.148165457238714e-07,4.112948824176051e-14,1.396271358498483,1.21744481426524
1.508843539934982,0.8166716483857933,2.63154772076698e-07,3.136598346481896e-14,1.385825103129257,1.210678341407442
1.4839640381294,0.8095708232678887,2.849894263237687e-07,3.699321112644079e-14,1.347258082747673,1.269226431404697
0.3140176932703473,0.805811498022989,1.623214359324157e-06,1.042572997159535e-12,1.468416374880859,1.166748927883788
0.5814969539675758,0.8153470910639858,9.77562787153471e-07,5.178702692536417e-13,1.352199919938399,1.320634480806387
1.526185762413826,0.8129980394561586,2.590043646577821e-07,2.926530529497118e-14,1.312014139598156,1.270287579506606
0.6096489758591718,0.8171824230102832,9.992412502419088e-07,3.651431119042416e-13,1.327108236374616,1.275236130977747
1.589523764917764,0.8185594349978126,2.27681753541612e-07,2.525710894645326e-14,1.338064956952326,1.254190003500409
0.7325443613610253,0.7893916115237997,6.380008695371851e-07,1.641352105760139e-13,1.350695081557411,1.235451341832333
1.472987939590495,0.8239865681132114,2.91971975153642e-07,3.971709514578145e-14,1.363305794130873,1.248181983794669
1.381663173464503,0.8163713506321132,3.253172924592277e-07,4.916615773027266e-14,1.354096415560848,1.238257177215222
0.7468084122363129,0.807354578422561,9.79606911238123e-07,4.189952925767514e-13,1.427023412660725,1.223028661431896
1.416758954337595,0.8170819932401515,3.201817927488001e-07,5.833307222367351e-14,1.296089397324,1.416153877474698
1.669381140469537,0.8279904671548846,2.068918707430964e-07,2.442344724572409e-14,1.332537785585163,1.302717868609929
0.7860898461233833,0.78388516893485,5.270402845846079e-07,1.09575880597036e-13,1.399211244756659,1.199689869593007
0.8956978274811596,0.7848465611857142,5.418481058804498e-07,1.130284015480199e-13,1.409219477689902,1.192022993864561
1.603754780848312,0.8233578813467002,2.274330664174527e-07,2.719747882573658e-14,1.344611324095283,1.262698473653449
1.264598825069534,0.8316150571660598,3.339630634059212e-07,5.215813998844574e-14,1.423210967023356,1.1929614525615
0.8268147962379085,0.8038891898868286,6.09269061363214e-07,1.43107002189581e-13,1.290181617181691,1.248470949845932
0.816693495051649,0.8120148169811297,6.133209431936899e-07,1.430216254101729e-13,1.309293263445891,1.22281462244612
0.9095657115894611,0.8553119864003889,5.736874481194272e-07,4.017055583535031e-13,1.542966492624878,1.129853802897933
0.4360952426402105,0.800929299777002,1.11069438699916e-06,4.469062190549696e-13,1.355216494315593,1.233027822662705
0.4435879576873802,0.8131156489199451,1.086276498286023e-06,4.232059926063321e-13,1.202894761121551,1.385077458621395
0.3983714796299955,0.7791513452170066,1.196686389240951e-06,5.347608190368859e-13,1.412178539899243,1.180741381650187
1.612671510084839,0.8257794084386388,2.369601610568669e-07,2.96808393590991e-14,1.314987350209084,1.305686534625136
0.2895842375387123,0.5760093047802145,1.861155233247563e-06,1.304271630844475e-11,1.487437759820749,1.171274643633494
1.545415373237136,0.822586278547818,2.48373752219828e-07,2.860890945056009e-14,1.349118149181263,1.270432820432231
0.3520685542312889,0.8394661631785849,1.489067216457444e-06,9.750120972143587e-13,1.392249044009591,1.194701838335714
0.6557991374872678,0.8123271459882779,1.068709048912553e-06,6.060098423047935e-13,1.357691739968261,1.226671748344695
1.193491854443442,0.8148247206323687,4.01121902598671e-07,6.351052459197173e-14,1.337217077620759,1.237791496585936
1.533952394062342,0.8153554296517522,2.515099952777349e-07,2.881458915026554e-14,1.377010942878761,1.222130086341146
1.498849049077112,0.8129881625787894,2.514976632489049e-07,2.993296534129235e-14,1.330734916433731,1.270463469702643
1.391730814194695,0.7968764964553428,2.897693666925457e-07,3.404157868374639e-14,1.37186509356961,1.223692562352295
1.344998454396662,0.8003511368925926,3.392700768392771e-07,4.931513013699032e-14,1.352579795126564,1.259702208896557
0.4284524243521936,0.7986796673791395,2.537598418657704e-06,2.281867817490971e-12,1.352442601519716,1.253263202049275
0.4344464524552363,0.7862747519802288,1.498270407295894e-06,7.940524210271513e-13,1.384462850140543,1.240898789046516
0.6515345376607173,0.8159496062621858,7.897399283357768e-07,2.41855611855827e-13,1.46640738141577,1.176635281045324
0.6333183042370607,0.8022081778208706,6.957532560084273e-07,1.896148562347238e-13,1.479230361910434,1.172316001347014
1.643002219492205,0.8209436350014356,2.150285173978318e-07,2.400278162383262e-14,1.37758881067431,1.260089567031336
1.406769805973592,0.7976620625443233,2.911858485855479e-07,3.975419954753986e-14,1.34958260055365,1.256768951251904
1.626132992850705,0.8167147671071828,2.389582647269545e-07,3.352796919068966e-14,1.344971745009232,1.239962511740401
1.502521047175666,0.8253036558898732,2.585994784954025e-07,3.305298558763284e-14,1.323931421315151,1.283030106074244
0.2960589082294095,0.8115324898901612,1.443253006102142e-06,7.727613549908081e-13,1.426166826138667,1.193998924750285
0.8554642481511332,0.803736205183361,5.297033550519825e-07,1.084319780475711e-13,1.32061140548976,1.215520335390873
0.7765206520522924,0.8227009081682246,6.347549008483391e-07,1.51266428631522e-13,1.356582882893645,1.258355454909747
1.377954938901142,0.7995347017027281,2.85480242782211e-07,3.435722733875414e-14,1.362898538977279,1.21984123382116
0.5027884358151959,0.7892153854338984,1.165571411869143e-06,4.80441074738682e-13,1.336056877396044,1.283302543369195
1.33736055615384,0.8103652643850372,3.574880080318551e-07,4.982579223489946e-14,1.348960568149211,1.234917629492478
0.6356315990235792,0.8143702742771312,9.786803664976731e-07,3.459340897823488e-13,1.379093707549684,1.218953727459718
0.2253301822268068,0.8094069348955538,2.394198919278938e-06,2.045128605067877e-12,1.467614494776768,1.176555507918209
0.1958728142067623,0.8119392937556132,2.14038933942243e-06,1.649668777249138e-12,1.407712672800751,1.22944483139011
1.469655258517506,0.833432054101804,2.605971508040313e-07,2.92698063343958e-14,1.370145167052801,1.229803294929148
0.5302034232277876,0.8350328252126425,1.171946303857894e-06,1.386367000132637e-12,1.362450907413405,1.250746896184932
1.174339210820206,0.8139921879638617,3.918064724787605e-07,6.466944661603682e-14,1.369497383655737,1.250575691158269
0.875538396072367,0.8337403684833985,6.254463145213335e-07,2.508939220850423e-13,1.380728817784616,1.222754108645057
0.8685128984867466,0.8184255953372404,6.665983162737462e-07,1.982776941454514e-13,1.298823863461257,1.325949860614952
1.571508707122662,0.8151039758318162,2.577836735436556e-07,3.672297122534349e-14,1.376147190146508,1.256368221417507
0.422643063289091,0.8229181648622825,1.105005535926203e-06,4.464322174880988e-13,1.30535642117933,1.263598130046223
0.6312842987938143,0.7770567046803986,1.028255290974322e-06,3.950459991778367e-13,1.350747579562156,1.261770811336707
0.3970965756203454,0.8031895618979081,1.26386386289083e-06,6.50619907280604e-13,1.341473380346649,1.2727151712479
0.3476344067379598,0.7953172091269207,2.210275442300162e-06,2.522390695920078e-12,1.173839232862029,1.634813653170669
1.563421264584217,0.8139403260500951,2.419657326388574e-07,2.874853075301598e-14,1.325071618614023,1.274308143499184
1.349510143242334,0.7991464807043288,2.996240700772981e-07,3.713164354706461e-14,1.318935232188681,1.284091903839784
1.190527729603574,0.778167259498107,3.613343702319014e-07,4.926937357973495e-14,1.338137871181067,1.252879153034336
1.295535347083962,0.7843599685616406,3.207990404877329e-07,4.299315326638702e-14,1.296795492784017,1.321794137575246
0.9020964976731735,0.8074278374047483,4.905307823799996e-07,9.596812448434252e-14,1.377933179180658,1.24312972349143
1.475132871518305,0.8104821319300903,2.201870356963899e-07,2.062338199615045e-14,1.38331196192363,1.222265038698353
0.7120139888566857,0.786557101140932,6.290978313985003e-07,1.446817371702902e-13,1.365953358665583,1.242232970131606
0.304789262674121,0.7951296201258324,1.719591358539032e-06,4.65056487440019e-12,1.358102992262025,1.231831161050667
1.462264901331518,0.779355486951099,3.064284874349851e-07,4.792863470456579e-14,1.298198335837734,1.364675717605159
1.402015671076136,0.8050606498378029,2.821252702654368e-07,5.485244640324229e-14,1.323330376631603,1.29244839721613
0.8214330799518085,0.7947103765309335,6.39036778366577e-07,1.708574194315295e-13,1.331188882935794,1.222285616700763
1.112496616219518,0.8047274498053916,4.31954827257681e-07,7.585676511057588e-14,1.342307945178211,1.259022219125574
1.224428229016505,0.7816230977801796,3.828005659275928e-07,5.511506919191616e-14,1.325093013884655,1.252631618955193
0.3596137946893941,0.812713937336166,2.002524863578136e-06,1.458672553056676e-12,1.453598416574654,1.165649655173032
0.505428491009656,0.7971016934858358,1.237629877682951e-06,6.354804077541581e-13,1.416106444598501,1.209549606951583
0.8788192530448864,0.8117360347007802,6.34042576987837e-07,1.680367910285096e-13,1.380015993628361,1.232043668909361
1.403549784712119,0.8046046444030998,2.687933303032334e-07,2.947705050217757e-14,1.36000790194199,1.239600965163866
1.287101735444396,0.7865637824833325,3.206725654563e-07,4.021649907607825e-14,1.344300023645095,1.251306002349628
1.226178164231695,0.7954388690747383,3.760989141753715e-07,5.464943868237475e-14,1.35718728971007,1.232117568405935
1.017760007268795,0.7908768685487674,4.906985794635862e-07,9.841091165163526e-14,1.392630963939659,1.214032140399136
0.8131486563003254,0.8094112749595751,7.624685366321361e-07,2.206977934729911e-13,1.408407191146875,1.215071971437904
0.7085547320728546,0.8100081659683851,6.988247643590163e-07,2.041630344868091e-13,1.3509359060927,1.273928411922811
1.360233253494705,0.8081019441766547,3.471750832993104e-07,5.491073722748599e-14,1.350010160558337,1.223118833628052
0.2744633705245423,0.7787643567666587,1.658807055440647e-06,9.846914532734283e-13,1.373819990720868,1.256817816623736
0.9083205185932668,0.8395791275535066,4.840241811949982e-07,9.015077362722552e-14,1.344257483577817,1.253849514011797
1.279943413781484,0.8082046647111525,3.161256404029163e-07,4.032544217537715e-14,1.328272118382155,1.264095564947076
1.379919297141746,0.8060920752788846,2.745126241727984e-07,3.117048553363385e-14,1.360647229281991,1.244345315338351
0.9072688903877794,0.7832495042441887,5.186098533728027e-07,9.790298139903068e-14,1.34040838985634,1.26780976657654
1.406366419367819,0.815294537024324,2.766041934021446e-07,3.189593563072622e-14,1.35009202031105,1.227984445598793
1.327555644703077,0.8024633573258992,2.859844295392189e-07,3.772781405698097e-14,1.28635039293381,1.353196066073928
1.226873629403617,0.79748116915941,3.163763942763223e-07,4.290267814363853e-14,1.328255906724053,1.251345345695321
1.606948601693206,0.8218224755021729,2.163757739956132e-07,2.390426482122391e-14,1.358398699648523,1.225427340925836
1.513940381276949,0.8550531187904711,2.363024065600055e-07,5.382735299315553e-14,1.353409446976461,1.169685966555588
1.358581994057571,0.8183108222696478,2.806535508521123e-07,3.616359482389121e-14,1.336160315363938,1.264656702064712
1.365162357156874,0.8132233495417892,2.67751243991616e-07,3.169363623155358e-14,1.371640593266739,1.228772464316791
1.431047515004289,0.8164075287249102,2.380531596267881e-07,2.387929556156349e-14,1.360385197358358,1.236465017166847
1.49815397732969,0.8196999379618554,2.250055998682611e-07,2.298284480243335e-14,1.340417381660858,1.247786698519962
0.5779233071935606,0.820556257700573,8.131616803214285e-07,3.543730620715782e-13,1.322858823571152,1.247216336277083
1.206521622730408,0.8176057675489684,3.09934896860306e-07,4.580657637478284e-14,1.379960840854382,1.220725938115844
1.595275269522781,0.8269920160494111,1.940960332358944e-07,1.883396507285246e-14,1.360544478488005,1.225248697040992
1.456236333850437,0.8183637427469759,2.495070019564743e-07,2.767876050651097e-14,1.346960829392094,1.232991375222915
1.474089959710857,0.8149839255623637,2.404818175857173e-07,2.677147161798856e-14,1.388831890585772,1.218719556366463
0.513533728947127,0.8060128324812997,1.040706323437961e-06,3.910929647346408e-13,1.371995121191007,1.23253437514262
0.7961560349693375,0.8157502994226488,5.834931304488439e-07,1.253152754679729e-13,1.313232513910433,1.295951223654456
0.4176283447200327,0.8231086464225271,1.199365215992341e-06,5.325428496197623e-13,1.389328062032158,1.193479851958682
1.185283257072295,0.8075169829557379,4.291790859456698e-07,7.873971002439561e-14,1.358904661433952,1.225349035899759
0.7429267483277227,0.8084820859284856,7.39059567206315e-07,2.198023025374324e-13,1.344375152766609,1.223773469713278
0.5548443411184414,0.7856117274131644,1.008813805063669e-06,3.61440536606551e-13,1.344888080991184,1.219170610758207
1.354927869907284,0.8043253222859463,3.109485986975475e-07,3.903874447706545e-14,1.317653271747073,1.273341616203908
1.429043921553894,0.8112832529104507,2.502033370393113e-07,2.585566233264817e-14,1.340559010628882,1.250873508889001
1.340193874602067,0.8012776414441807,2.731312530784548e-07,3.00872733392127e-14,1.307656402428511,1.279295611206725
1.35393165850702,0.8008286043353755,2.705841037108469e-07,2.971225305745941e-14,1.343131766405238,1.264347437952037
1.452469169338173,0.8028108598292202,2.815723478603365e-07,3.563390670575767e-14,1.36166836082411,1.23430813582222
1.277767799046111,0.7986914574386265,3.403536975537519e-07,4.741354645667313e-14,1.337357348184336,1.259103175278023
1.306071347612274,0.7993628848313505,3.041982339229169e-07,4.11668284261289e-14,1.290636111887698,1.343724442504932
0.9891280286479299,0.7957976482347554,4.727635351710756e-07,8.234091529068591e-14,1.351761357011606,1.260578266211346
0.4793636261465497,0.8056566650817385,1.148961964123313e-06,7.178097034199641e-13,1.448710698723666,1.161423125924557
0.5673995038587476,0.7639093570178054,8.685188178203033e-07,2.671522469193924e-13,1.359686347436285,1.245940494565929
1.316978769584837,0.8188539194472304,3.234634523497865e-07,4.488526535695851e-14,1.350792368958603,1.229419016428504
1.400446552834103,0.8179853738472034,2.801286619337481e-07,3.343682342235033e-14,1.349901295906765,1.239916148947199
1.396338900695182,0.8141003658825369,2.777090549145627e-07,3.19637808389541e-14,1.333680392278595,1.263330628992928
1.357744359534314,0.8143742993737252,2.92094146831433e-07,3.556344036736117e-14,1.336911032571188,1.251124709301371
0.5016865426383376,0.8130285508567398,1.117540373691467e-06,4.538959621685251e-13,1.322766202464788,1.222436590158786
0.6219399143914478,0.8106626770683026,8.112028584963274e-07,2.500794656883295e-13,1.283855808143538,1.293369387479547
1.187165865557548,0.8106222805372438,3.754968974542135e-07,9.024839668316709e-14,1.417215704300433,1.199225484320579
1.285692091495682,0.8151662294413434,3.533585276944786e-07,8.543544918415265e-14,1.435291286413445,1.182136116970152
1.288423907965712,0.7957546561096618,3.235197350666517e-07,4.094901268868589e-14,1.34816089604691,1.255625573378359
1.273256190510133,0.7850765568631097,3.262565857163562e-07,4.145378473239678e-14,1.339496333523217,1.25431667059973
1.294735144470576,0.7971690781740194,3.234334747034557e-07,4.386994236149662e-14,1.346221716043021,1.24537454414247
1.400691048198735,0.7928557916532833,3.519107425782127e-07,7.516161238060738e-14,1.240641416984159,1.501117961199703
1.509183564490399,0.7864641006140474,3.301284230022363e-07,6.698995074368996e-14,1.235638108208055,1.496384187924302
0.1716247573811748,0.5290593158108892,2.165650191834921e-06,1.976101888706986e-11,1.483247323765226,1.150643045514161
0.2811868212641188,0.6795468206481448,2.379536266522269e-06,2.289530991215502e-11,1.454100882128831,1.166741934483362
0.3109604596046792,0.6769542592494179,2.412958480208785e-06,1.829359121357662e-11,1.467955460369573,1.153399979037071
0.4502410794095084,0.792072224221558,2.491648843356898e-06,1.152527766359841e-11,1.422631727375848,1.172655385670011
0.596839219302823,0.8072649710573774,1.994003861653265e-06,3.934473160516362e-12,1.427920579825525,1.176261521904052
0.7347581547801222,0.8259890982462768,1.680347375621533e-06,1.31286534649348e-12,1.41519881990029,1.210051658054186
0.846347042243611,0.8102245818882716,7.967713134175745e-07,2.580281954086338e-13,1.351674295261192,1.258376167233156
0.2506937026491456,0.8239598876383094,2.490927375873062e-06,2.64097615743766e-12,1.44244857637814,1.174860059428992
0.6429080663163571,0.7940463978880248,1.115733258079403e-06,1.685886094033018e-12,1.33337943012137,1.243525391567848
1.192090616347951,0.7824928514080622,6.272537221011289e-07,2.008818010167625e-13,1.246832760850487,1.332211035650049
1.110123153671495,0.7610790257073375,5.059858915122265e-07,9.660051196639628e-14,1.254025919443156,1.334223663072658
1.006151150611693,0.7318185526716301,6.462282026447154e-07,1.447681960854743e-13,1.276677597313619,1.331894649464885
0.991083762146327,0.7644660274115197,6.515644551534701e-07,1.567502877112304e-13,1.259099177863803,1.275944073766352
0.7484538882214904,0.7802439805543794,9.963181231932977e-07,3.496047274472255e-13,1.262593353649271,1.291328398308114
1.282219897519742,0.7832056309116193,3.674368403905648e-07,5.61102960622362e-14,1.280189634526171,1.324233546225044
0.9875720289626552,0.7833613670103109,5.472080807673635e-07,1.11467304423201e-13,1.348651038367798,1.243903342703931
0.9093774334232124,0.7984661256367848,5.935768927797588e-07,1.381476951133071e-13,1.412685793948359,1.192479725280563
1.288238057460727,0.7928684315347578,3.291880091364307e-07,4.256003399147967e-14,1.301507744415421,1.257381125857303
1.183994439255506,0.7834340365050413,3.746706841734367e-07,5.65161869163262e-14,1.240103313229679,1.397813988362538
1.146182628142016,0.7800591760115525,4.127211782847358e-07,6.21659895876238e-14,1.294579507688172,1.291677582530055
1.146756236463139,0.7867200794234555,4.407104329297117e-07,7.325441125617134e-14,1.270991308068518,1.35719834369731
1.136429301196468,0.7724630737915616,4.266334901097375e-07,6.580179552145764e-14,1.347707127173655,1.245521143955548
1.090149890635195,0.7772442259661608,4.280737390304203e-07,6.714603142958125e-14,1.322455479201353,1.277987382186545
1.092064086992329,0.7680405028015637,4.324627438611868e-07,6.847410687759837e-14,1.347805527007771,1.249662798406645
1.144104095829537,0.7880466085270463,3.395122258509417e-07,4.298708905251628e-14,1.307954944367625,1.270392898066072
1.369589909707574,0.7949493522129052,2.81627173671331e-07,3.229989361163276e-14,1.33222808887292,1.260338643623564
1.354069164983586,0.7977838507801843,3.172547633949137e-07,4.360572421227575e-14,1.300932996010614,1.256676232560805
1.315031374869697,0.7898604441270227,3.533486876885021e-07,4.908630148601193e-14,1.329888402076199,1.245989355129855
0.9672582203057383,0.8198186808112675,4.925378294021129e-07,9.223378420409695e-14,1.398513602638067,1.203363719123548
1.253952832442361,0.8354091248478834,3.319896798386992e-07,5.268134667878387e-14,1.318236914946923,1.321142600614542
1.531710909795381,0.8152671016846043,2.162018289156848e-07,2.071388830162347e-14,1.399121162365642,1.21391757145272
1.413918290593081,0.8018338683691228,2.642489454199182e-07,2.977152408333777e-14,1.372456404542106,1.218684189349353
1.386199988555812,0.7967880504930709,2.819178220330482e-07,3.326330046180654e-14,1.363052828178606,1.236020456557838
1.523828334768432,0.8203324364875958,2.08991928941758e-07,1.961192539166226e-14,1.358953375511107,1.238580402982513
1.145921500781087,0.814473981658874,3.511056496709206e-07,5.037100748450884e-14,1.310159618004443,1.270889036857101
1.452150787905958,0.8122091873103136,2.510850405680656e-07,2.815844730449404e-14,1.352608314317125,1.247620679799891
0.8283571572466853,0.8400410436663469,6.158282920449372e-07,2.007359946940737e-13,1.453918860342424,1.161394115045278
0.6069157887086513,0.7926951789385116,9.010861904172499e-07,2.996814311036571e-13,1.416316966469864,1.192036897619023
1.407356727884032,0.8056022062748428,2.977591679402034e-07,4.373817808370522e-14,1.289172182601288,1.288997645183553
1.36864332292,0.7972105037719814,3.041875836058335e-07,3.91079788185515e-14,1.318980862909328,1.232916270149281
1.198378907935876,0.7789212477669041,3.372321212862486e-07,4.456841632317132e-14,1.293972899209368,1.2677470044791
0.9512915340153225,0.8069474603430113,5.450896293919427e-07,1.084526040965542e-13,1.33696111457322,1.249101268719578
1.179916043309998,0.8118729805349753,3.234765655277606e-07,4.611879439656067e-14,1.274192241543243,1.321543479033041
1.503267108102244,0.8202251097863485,2.007705699311618e-07,2.025307157315546e-14,1.335946443273795,1.279451727593143
1.499482498035671,0.8082627869965984,2.172585556090469e-07,2.037990738373657e-14,1.350064920172932,1.237908260353253
0.9625508908018354,0.7913996258735496,4.609496391748112e-07,8.184496475697626e-14,1.356682426146725,1.219821219961086
1.033004037280361,0.808459346205921,4.613920878252139e-07,1.583807017910814e-13,1.198536802058141,1.44397436828434
1.320296557294396,0.7935297528028807,3.418766074681231e-07,4.581468085197892e-14,1.332370997199361,1.241631615303228
0.824312260148174,0.7965471558726006,6.273516945224791e-07,1.424146758376944e-13,1.406077766574972,1.204767682780151
0.7573286805483356,0.7917093129877992,5.982680010050408e-07,1.306649133609238e-13,1.4049647007718,1.211271007242694
1.354969136463379,0.8074418348895328,2.702178485402319e-07,2.920582804587738e-14,1.325284095605801,1.254859610708053
1.488740762333513,0.8109210012255472,2.495559813672674e-07,2.583200836298373e-14,1.342490501740989,1.237399855818058
0.6999147293222107,0.7999154599117851,6.486888504945816e-07,1.579418953764628e-13,1.3482953265415,1.223050114282321
0.9182542585217289,0.8081759068131117,4.350189066238717e-07,7.036596241458359e-14,1.290240386899691,1.281799227406408
0.1632900255244059,0.5592102444725842,1.767507634057825e-06,1.277253946991108e-11,1.472444959234294,1.15256729046756
0.2208773000367016,0.6340443171045156,1.778070976578731e-06,1.279052271789968e-11,1.474936350279387,1.148826089173712
1.297785344512638,0.823162736934597,3.2987711947329e-07,4.695242809677026e-14,1.357933189306532,1.244450402375053
0.2739265364061041,0.7486156209589621,1.410982791858871e-06,3.243577914031499e-12,1.388204818252838,1.186167779297475
1.137018782226466,0.7851593272992803,4.256554372284626e-07,6.676128027212991e-14,1.301877353873111,1.267059910093076
0.428649284802454,0.7882884849634921,1.290600026812505e-06,3.4351927423506e-12,1.43238524433136,1.183066142027024
0.5849077677889211,0.7226249670752523,1.347713520107765e-06,4.024434897344163e-12,1.412815540224365,1.189684264533236
1.351102864808753,0.7990566803515337,3.309048822143439e-07,4.456507949687323e-14,1.348340354771357,1.228762870922227
0.7913954297213894,0.8043239216734513,6.432884382146224e-07,1.476734914919862e-13,1.341736087607634,1.213826522954483
1.228285490326811,0.7852722624448155,3.791990326944888e-07,5.291722471204447e-14,1.312904178915261,1.279756685427727
1.054430117873713,0.7788653866629146,4.937991108675025e-07,8.493791042203824e-14,1.293317210085818,1.283086013373738
0.5225246287927847,0.8213488032947082,1.559046502127656e-06,2.290333961572386e-12,1.381261054391956,1.189060412653654
0.4171901967821046,0.8105816336611722,1.085109278570998e-06,5.048231767184016e-13,1.374134984684488,1.212942616597031
0.3230789688526353,0.8324256502381281,1.788426156460838e-06,3.112006070834864e-12,1.430685323788343,1.168437142453409
0.6230563050627643,0.8096040694211852,1.150132175035717e-06,7.967622527914766e-13,1.285080410258737,1.387312058893363
1.341367960451689,0.796046862058949,3.589236633243152e-07,5.434233599656424e-14,1.323450994156979,1.274045723956069
1.266100451160106,0.8003324482129307,4.193854530123921e-07,6.851794730015787e-14,1.339798832202328,1.239078398174651
1.018625820227494,0.8291521461005309,5.843314284157881e-07,1.275934193815394e-13,1.286268554889787,1.298836760402657
0.9860311627189906,0.8374242421335953,5.072601129342815e-07,9.893806451361689e-14,1.340084514643943,1.253613868206556
0.2349858574319717,0.7893922505669971,1.962805230972992e-06,1.426134781152642e-12,1.343348402062193,1.230062216295278
1.469333043393747,0.8072635509294442,2.448133051790775e-07,2.792787448677772e-14,1.320980512293809,1.304995192408509
0.8793246610503883,0.8299914611565206,5.539340778454189e-07,1.610552923573055e-13,1.381675977700231,1.233050618060811
1.431985145501309,0.7945299257054621,2.581411018413785e-07,3.116009491809901e-14,1.349098083617042,1.240083077290856
1.385880429421959,0.7910108744882607,3.07845061281854e-07,4.049628609976851e-14,1.351691060936816,1.229455128142071
1.291995975615273,0.805985116142499,3.296428506926132e-07,4.554784809111917e-14,1.389066775379435,1.228529188023072
1.350778302552087,0.8008396400966344,3.00838348154928e-07,3.668974520166743e-14,1.336728430162177,1.235883851115315
1.140688365916693,0.8067887597104373,5.047604191544965e-07,9.996920723444482e-14,1.434866366423917,1.19459817640881
1.214126842527884,0.8112699060795331,4.669802828156762e-07,8.767912516898698e-14,1.347103792127099,1.257220599616812
1.177821114504684,0.7931614487575189,4.643599248021854e-07,8.162624822043026e-14,1.308899460121706,1.283679438296503
1.201574633164762,0.7978122123497743,5.69706747216264e-07,1.488660925513619e-13,1.396407758153886,1.219525163143031
1.121365567307606,0.7897941217769938,5.89203121010634e-07,1.551613926159575e-13,1.321303171123694,1.265722595992945
1.080435277052831,0.7947568080422627,5.375004496644176e-07,1.374969786209145e-13,1.29390528893953,1.293949426609057
0.4132501964021252,0.5851247910320447,1.666896698973223e-06,1.157312534621319e-11,1.527405879370158,1.150461046465379
1.119039503769343,0.8058694876216792,4.067545856513523e-07,9.35565004754522e-14,1.318994029833482,1.313646068574799
1.275048175942248,0.8149984244971672,2.813890415690238e-07,3.508057141735103e-14,1.301894039156489,1.267467046527374
1.360165735334795,0.8162831454863096,2.638133007789623e-07,2.933466822636353e-14,1.373795325422747,1.224645589940472
1.276108753019727,0.8030205675687379,2.985741139360497e-07,3.524907215519325e-14,1.344315191024932,1.257842492717592
1.321868865591625,0.8024376448192592,2.846819954228067e-07,3.281652580532576e-14,1.38704943817214,1.214159063396428
1.38119502492703,0.8096940485052465,2.497069189216608e-07,2.702903051006129e-14,1.35317009211229,1.254220490811917
1.383346627300934,0.8100826695752064,2.853551337268824e-07,3.633392063366186e-14,1.312173124539192,1.295579960589489
1.197872017113753,0.8036753757397798,3.616886688390862e-07,5.834602325461888e-14,1.395267365343563,1.23350346450546
0.9004352608988796,0.7983575716162126,5.634147907457497e-07,1.406873057290992e-13,1.399991500726046,1.172777952634515
1.472514143499407,0.8157861906157708,2.803084333682847e-07,3.287700087541405e-14,1.38605709172409,1.233468337461369
1.448293721239484,0.8183904653139716,3.132823245921053e-07,4.184739234794459e-14,1.408275889289464,1.211403972609509
1.412822830662351,0.8108127148945494,3.415134652408785e-07,4.929776716282336e-14,1.378382134237273,1.21784762800656
1.419041559105382,0.8200378668792258,3.128178992917952e-07,4.076949287961172e-14,1.391505285877771,1.211877672641862
0.9720073291516769,0.8111852062290639,5.707295729477237e-07,1.245144454341287e-13,1.403148343234407,1.198742433827859
0.9326281792657505,0.8240558467685257,5.972748386851256e-07,2.4172719925181e-13,1.397372491476887,1.242784499070747
1.000594753578048,0.7816276953397538,5.536883822078961e-07,1.266814587501067e-13,1.347780706810259,1.243006528104446
0.8839117831247609,0.8244103104774019,6.900676711438645e-07,2.446610543234368e-13,1.410326856095526,1.20071077781376
1.300703099334012,0.7977610375976533,3.31446517723796e-07,4.659170740096059e-14,1.301363248449027,1.281165733815818
1.209912334553048,0.7850608594914558,3.796510675281205e-07,5.47083074678051e-14,1.329752729715069,1.254105154461448
1.212201432813932,0.8020785085128551,4.10795077869218e-07,6.367744964612969e-14,1.317642057506629,1.259754374504969
1.387421008457654,0.8005973043517252,2.74540414364421e-07,3.093878395208814e-14,1.346732699437567,1.273235651041224
1.434632649461299,0.8058812705068483,2.630355559341225e-07,2.962043949140028e-14,1.32175563737692,1.260798383990579
1.280727745964182,0.7905398840918426,3.061379806588124e-07,3.668435733823189e-14,1.323645991424922,1.272667926428199
1.346586344187482,0.7963825177107273,3.213343482560909e-07,4.280947506472482e-14,1.308004290838116,1.247447046115026
1.358814803919105,0.8016042628464372,2.805237433738662e-07,3.466832864305384e-14,1.340081241197364,1.290506548099341
1.401482383617776,0.7899009491967061,2.643728442206137e-07,2.937736147064596e-14,1.326352664875522,1.283026173271537
1.350465064918396,0.7888947683381943,2.539628127665804e-07,2.554850070928363e-14,1.321834937017691,1.256091352058757
1.2732934909281,0.8093197804586777,2.972355343051803e-07,3.760782216305199e-14,1.350070069405789,1.262541579953691
0.2400161601507142,0.8166898291775538,1.420003108267922e-06,7.325508154770366e-13,1.347632962210439,1.230557700046098
1.365320815948633,0.8177217611195456,2.642407809334903e-07,3.369750729819976e-14,1.381109331192479,1.243732729425199
1.705211135150953,0.823376431224414,1.916335325379676e-07,2.114577624654882e-14,1.331106066779108,1.249376988499854
1.492423518306209,0.8280801960274858,2.207596318338725e-07,2.603739484337255e-14,1.407865147035136,1.223526006711455
1.540064086977252,0.8314171737159678,1.94631739757982e-07,1.864254889757366e-14,1.37213921489665,1.239852077740445
1.51490320526855,0.8260212612796641,2.054401717846426e-07,2.047700616661612e-14,1.324713587276783,1.23415931810843
1.427666932557086,0.8064748153166816,2.324076392424447e-07,2.270619705488495e-14,1.351868540789478,1.228133779203823
0.3629469177907658,0.8021851663433897,1.317326030380127e-06,6.32435124429454e-13,1.436295356466852,1.182561822355886
0.09133006238115443,0.7732427362414559,4.085756986550948e-06,1.707029200790093e-11,1.474399280740563,1.175952915602051
1.085927832370281,0.8173173322390982,5.422203052293326e-07,2.299897206589384e-12,1.227932146891662,1.655500708859728
1.522296151099733,0.814192338333868,2.874130296169446e-07,4.305339939532787e-14,1.347139151505774,1.245715322427492
1.308113680500182,0.7966521202479531,3.230344497266283e-07,4.029815337357954e-14,1.321763618109386,1.282342079783274
1.039752910088516,0.8089986528074286,4.982011361357627e-07,1.329638054172468e-13,1.371653899730759,1.223053835928461
1.216011901077204,0.7807376600051193,3.977124489425577e-07,5.936672490969233e-14,1.282725912185962,1.287689968581786
1.107443288468638,0.791722135709265,4.672727396456797e-07,7.943379406338146e-14,1.32183935700535,1.246045618954334
0.8683541736931485,0.8015904545719763,7.681413313385241e-07,3.829979239908e-13,1.269575489826288,1.296808965951256
1.451454399947234,0.8173066128808114,3.373403242847565e-07,3.442561317556802e-13,1.206473957780514,1.571106988239322
1.484989863962626,0.8099241591131281,2.26135479665233e-07,2.34953779540306e-14,1.324401808531179,1.271204421416088
1.568060165463342,0.8168109286079157,2.143491964663705e-07,2.449310697875458e-14,1.287894304804207,1.298695543813484
0.2207230365206433,0.5730748659622461,1.717081440634767e-06,1.201792994377082e-11,1.4773649492821,1.162893619058488
0.4285840602592995,0.7902745776710173,1.18072332668587e-06,5.011223088553405e-13,1.348701152000009,1.266581546991784
0.4908571008905767,0.724915033833469,1.066200293705455e-06,2.523742755532101e-12,1.399918984784262,1.201897712571734
1.267661359687476,0.8047191781236318,3.522876087664159e-07,5.957548576914007e-14,1.366755576286081,1.234318326039491
0.9604059315553121,0.7895055186002453,5.701870582106597e-07,1.328359371192859e-13,1.332959970636119,1.282119901912782
1.345654022428397,0.7946733682433381,3.417253403817748e-07,4.767472986491557e-14,1.36661711407215,1.22242865037472
0.9391636877836136,0.7931781339361728,5.039630581984231e-07,9.35549739409334e-14,1.356350188239151,1.252071698250816
1.006912628079453,0.788525047066397,5.009500607013987e-07,9.741398847269142e-14,1.34198857194762,1.284394991085087
1.409318870468744,0.7990569582847692,2.782223847360572e-07,3.277439086818264e-14,1.333268876768182,1.278854110909477
1.228148749874837,0.8141833328031711,3.066222611169182e-07,4.337030249717111e-14,1.408901577777604,1.223802192324313
0.2706344749844337,0.618003917071574,1.857651161082261e-06,1.190164407273053e-11,1.491463521728367,1.176683690792976
0.7515783164391795,0.8079362026277569,2.641017774229233e-06,3.352890661057737e-11,1.366436342364656,1.300937001443201
0.8592661717104036,0.8219857532136976,1.51619915954966e-06,2.651909406588155e-12,1.41373254976891,1.198257878931873
0.9921762577519184,0.8168849278162947,6.889102973674002e-07,8.126923500607748e-13,1.383057645407047,1.262574975021895
0.7700562582125122,0.8346840254807752,8.74350997582974e-07,3.479224564801629e-13,1.398547113365056,1.227097183430663
0.406269195267463,0.7938662513104483,1.610374278157242e-06,9.491260833925256e-13,1.365046601715417,1.222876350960649
0.5834238530037915,0.8033815445065577,1.090581257077694e-06,8.006910848982166e-13,1.216884965670615,1.556338391413802
0.4562093036775209,0.8102725668234125,1.424827476988968e-06,7.862616908151935e-13,1.442041940139497,1.174155235804153
0.5044468389908005,0.8054062424080058,1.3743189806456e-06,7.097707997254799e-13,1.434777511543834,1.203286657379712
0.5391717463869368,0.806602981466522,1.187577464684251e-06,5.422092233194931e-13,1.351059252367157,1.245753108186329
0.9531915154153191,0.8076443847526218,5.118889060462725e-07,1.065558649796436e-13,1.312772260861868,1.256850588947162
0.9609634048620306,0.7959383586071944,5.136528223533952e-07,1.007422546373872e-13,1.325102674932916,1.258754812594348
1.322141726987622,0.7963072842797381,3.054630810654203e-07,3.887548338274455e-14,1.338742155760027,1.300588810217635
1.357655230546832,0.7806446825270634,2.91181659569389e-07,3.485104641589497e-14,1.340538001866126,1.276001245756767
0.607430675946617,0.7956876055704565,8.490687286262159e-07,3.05241879516276e-13,1.366706964024053,1.239877640419257
1.436192100888177,0.8005305549007238,2.554980295356326e-07,3.07543289178922e-14,1.318950867108351,1.301593570756817
0.07249350079508658,0.8107036651191942,2.993553757437314e-06,3.17567610504529e-12,1.384085943471725,1.195330148341053
1.396125936759276,0.8117606259386247,2.726565831842324e-07,3.95240347724419e-14,1.337558870969757,1.216320289885194
1.080140204358265,0.789942772175826,4.587182300825834e-07,8.168542476949659e-14,1.347342433415815,1.265668584185216
1.026257254202648,0.802801058541121,4.780645058130388e-07,8.385575366844083e-14,1.320251596860395,1.255258777560313
1.035785541152179,0.7964505787801207,5.301456346638169e-07,1.033181356726126e-13,1.313562922525805,1.292434623213551
1.177174341382966,0.7761625118967865,4.350301775425034e-07,7.229647666931398e-14,1.347822555972489,1.253850148842861
0.9787166854574137,0.7842316018046529,5.435049543234727e-07,1.099056695030864e-13,1.330022651832352,1.250960278087637
0.193464167371178,0.7613536575127542,2.930046839404686e-06,3.21491181252297e-12,1.358452555481821,1.227655191646333
0.0950827747808223,0.7842003524524878,2.922526543786189e-06,3.978453944342264e-12,1.391410029255242,1.245408791200374
0.3009565067810819,0.8245316735547468,1.538122427732253e-06,1.963768407292632e-12,1.496337349489252,1.135631205199895
1.419793803622004,0.8019578331012691,3.090061606554727e-07,4.100568298570105e-14,1.334812140768296,1.27219881524319
1.274358812196527,0.7830220400930759,3.426562254675417e-07,4.770042609837359e-14,1.287602639656281,1.273722311457907
0.1518860164422272,0.7858139618373057,3.023863876321527e-06,3.836879053177414e-12,1.401132117313082,1.222498797711061
1.271570270186331,0.7858943739889349,3.728935175244736e-07,5.64481254933284e-14,1.32086721116791,1.285599952655999
1.232934776930868,0.7911562416003654,3.633297560832957e-07,5.279841002627565e-14,1.349450917915233,1.244408376975959
1.026712035779688,0.8061963743720554,5.024201464363783e-07,1.037056076373103e-13,1.379524710758705,1.234618646059884
1.013710945136905,0.8103758124006034,4.29399452195665e-07,7.396802806794347e-14,1.363400144970313,1.24499179290262
1.369862071755454,0.8118306650415856,3.003004342049166e-07,3.81903647369562e-14,1.387941863756809,1.212550963885393
0.6742428801216885,0.7813487461681013,7.370877645653901e-07,1.999008111372975e-13,1.370715582341741,1.247574916357377
1.524134039245453,0.8136746666865411,2.255609167567267e-07,2.35884728072623e-14,1.323855219971062,1.244609108565108
0.1986299870263896,0.7654114999121793,1.610130449689977e-06,9.35316277679943e-13,1.342666055278194,1.268901007521414
1.523729523249871,0.8338077746606873,2.247963452193873e-07,3.324203824390622e-14,1.313229432053051,1.308366357417548
0.2538240121824705,0.7778962172919242,1.458406117134084e-06,7.930942122898094e-13,1.330803873781272,1.266211903615576
1.600136272190342,0.8260384662630467,2.056893145452384e-07,2.474631926652888e-14,1.366874115365277,1.211531370001638
1.29145030800333,0.8156478582451087,2.74228813331258e-07,3.566586015965401e-14,1.351008108388123,1.228339748232745
1.543456620927631,0.8176709820700793,1.953898840276264e-07,1.758696300366256e-14,1.383901901657516,1.22262180150223
1.50630810397048,0.8102279219434427,2.195790505938233e-07,2.177204797054845e-14,1.371959191794835,1.225253096957595
1.475313981572025,0.8051285787719931,2.270898043455317e-07,2.415171212450751e-14,1.362643498679417,1.229217564119215
1.548363651160529,0.816203108975229,2.078788202069783e-07,2.063136762095565e-14,1.344833268807015,1.227806054005805
1.461574986200693,0.8079463323283759,2.159229971630817e-07,2.017090438125104e-14,1.345880770498827,1.22852650759827
1.346167533734905,0.8302454999076022,3.102041847754094e-07,6.253987927302745e-14,1.400496989189936,1.240599386793682
1.489104073743279,0.8057241574834317,2.216226062066607e-07,2.250879948171139e-14,1.324593768710304,1.27477212986094
1.441506756251033,0.8026186210854782,2.449713318172276e-07,2.720260921291831e-14,1.327851534755058,1.248241096468688
0.4789703869357014,0.8044528464490539,1.03636105575613e-06,4.349422434777973e-13,1.436048468583597,1.185554770084369
1.090205843896341,0.8203150974275214,4.346665865638726e-07,8.629689510965431e-14,1.462742701291086,1.167372952977815
0.8069078965495567,0.7784773175338936,6.190697062829304e-07,1.541038227661109e-13,1.39871878330348,1.191783831923372
1.289608323175313,0.8036291777549668,3.940156864047029e-07,7.100230677596604e-14,1.386033073123295,1.221051367584193
0.9758728907406108,0.8003739048034945,7.102941684711744e-07,1.961958273480337e-13,1.422250076843214,1.219497517921742
0.9423272127520098,0.812309544226871,7.348231958044207e-07,2.200820579596756e-13,1.407034635172419,1.208177911649129
0.767514666412366,0.7965918266053421,1.300294946582998e-06,6.932756084937311e-13,1.37895107031696,1.232430240997432
0.7823204056392891,0.8120346636507307,8.036186755395206e-07,2.699121711479891e-13,1.452327076630552,1.167532396717731
0.7549903757043622,0.81689527236064,7.451501935137176e-07,2.306575109175089e-13,1.474432624848918,1.150563805689001
1.266402007721172,0.7919653642773523,3.261275982342889e-07,4.079608840589269e-14,1.335153265605201,1.253766686989259
1.221613983702716,0.7857484690847073,3.464927290095487e-07,4.518063543982707e-14,1.32888525766214,1.275285884431244
1.328084744257598,0.8116359346126385,3.058825084082083e-07,3.857697740409982e-14,1.364113666283804,1.248731674333818
1.313823934691668,0.7892721960488006,2.898867544314905e-07,3.21330320064523e-14,1.338521269699727,1.257096932791585
1.280844041416159,0.7957254353128255,3.09350706281088e-07,3.630084526826069e-14,1.355495535460636,1.248207620944817
1.371219348313609,0.7982254322038141,2.797102232386476e-07,3.332695261289485e-14,1.335888203005696,1.259107565586442
1.416809757116577,0.8075378017013672,2.653755126617701e-07,3.080013595674825e-14,1.317769519531703,1.275805021693287
1.381538236283335,0.8088044159900108,2.492545599950604e-07,2.601979820807533e-14,1.363000488760093,1.230618280689644
1.388751205958209,0.8080128914568921,2.491306241003428e-07,2.566957986850884e-14,1.391225865312667,1.222422309806553
1.388642637006354,0.811857468318012,2.6287868906999e-07,3.018911381083234e-14,1.354214752117884,1.233044759942945
1.145966251356951,0.8066242766900564,3.798259128341013e-07,6.473361206663551e-14,1.362833864418028,1.23581894268855
1.434205539212627,0.8179111289483053,2.437120536035168e-07,3.316699357431005e-14,1.397087115588979,1.220163382956275
1.516037393511106,0.8130842129567539,2.077469298941495e-07,2.725195147970689e-14,1.301407409428447,1.332966069445519
0.372892005101488,0.8248079204270297,1.293915263733997e-06,1.955319633384062e-12,1.478870325159483,1.160883453233826
1.405428970596085,0.806824456009628,2.839761597554541e-07,5.355548024358455e-14,1.223047641940779,1.472066670553049
0.5955221394461477,0.7910941590427434,8.188300094513089e-07,2.61384531670852e-13,1.372565850887091,1.230241627495641
0.3525586112765218,0.7137105482677316,1.496345036972822e-06,6.005026851756288e-12,1.385018451839543,1.198357155392669
1.488455370029954,0.8179370424351183,2.120254611186567e-07,2.047822056610228e-14,1.32617966994352,1.283608229072641
1.544367369149085,0.8221237446036952,2.022442959990789e-07,1.88419940571473e-14,1.330072056354551,1.27062736495223
0.9626836494608315,0.8145513960176249,3.901332652212129e-07,5.732473894157834e-14,1.371552036245804,1.228307279080608
1.065514004417235,0.807623911590898,3.699280005936009e-07,6.017984582218831e-14,1.385689085255279,1.220392362158311
1.232350965413807,0.7925014206349819,3.119555725793045e-07,4.752419893504397e-14,1.354901144130935,1.235685137643733
1.595683498427566,0.8369720407397103,2.065918428436029e-07,2.943178325376169e-14,1.396594742232844,1.21585002959663
1.149049822614914,0.8163406293313915,3.243143462543094e-07,4.665474110475139e-14,1.359956572198882,1.206604057680033
1.226701019224851,0.8250914130705264,3.198190622439335e-07,4.508777069107696e-14,1.356780779709828,1.245222511484025
1.646600438913911,0.8345737215591686,1.835135542543468e-07,2.045501957539754e-14,1.374205280202565,1.226789487261532
1.102913803105349,0.794431568897558,3.062814900952229e-07,3.814944416589033e-14,1.418388195627819,1.19793099678834
1.511905473455028,0.8222715378311662,1.978367579088629e-07,2.153447037869613e-14,1.355430808425433,1.303536736788174
1.709667662057177,0.832162461569298,1.641401821769917e-07,1.556402758068401e-14,1.34731125718812,1.255714502671899
1.638135327929254,0.8313877950343398,1.576163139955244e-07,1.279613249471854e-14,1.357824783496028,1.265153376548654
1.530893597300794,0.8335104902609813,1.802774834422536e-07,1.55138334872257e-14,1.397348381298295,1.204452739399468
1.636727453604715,0.8302640307531951,1.646264640989349e-07,1.347061335468442e-14,1.361730684910319,1.218257206888304
1.68875318749721,0.8409888225069208,1.62154845126073e-07,1.461839828709988e-14,1.379665782443538,1.23583470234874
1.719764676349421,0.8321862583913044,1.778497877222093e-07,2.139144278897195e-14,1.327617691569535,1.259435794373341
0.4634739621851149,0.8068953103553571,1.12071870551623e-06,5.83871831649834e-13,1.399770932814638,1.167790234109533
1.105950482579064,0.805134877732909,4.878248737105765e-07,1.181649859960088e-13,1.372533701765193,1.197288112008007
1.078010382908142,0.8185299467098536,5.571198761454092e-07,1.712905110041918e-13,1.3528933253932,1.226128404516257
0.8538368400436406,0.8044879156009052,7.124657911615102e-07,2.009913369335345e-13,1.394421086928054,1.212458655916736
1.129632406110131,0.7861433890427771,4.791663634393157e-07,8.377506305881552e-14,1.355919788899525,1.238210925596268
0.8536340858567406,0.8347956813880689,8.134497540619647e-07,3.63607527270836e-13,1.433893958936261,1.19095988634208
1.149080641543327,0.786418280593683,3.83345105007184e-07,6.967482448570408e-14,1.303436707666778,1.267512868202025
1.517862486039818,0.8113314691231425,1.99440449507565e-07,1.839830497880132e-14,1.330244144043889,1.261379339257461
1.353892292287258,0.7991105376250297,2.455346908984722e-07,2.717400671080637e-14,1.301700737640747,1.311080467425034
1.125117528386131,0.8032836392853943,3.348186088855859e-07,1.625800666126928e-13,1.420284668229357,1.198247207670633
1.388376600796986,0.8090044917825311,2.501513714361686e-07,3.034062656709757e-14,1.350980403604124,1.241954054096889
1.464109350819927,0.7948526980554309,2.468373176120502e-07,2.736369708131579e-14,1.299257748092411,1.284393512436584
1.457663777559052,0.8026115801344613,2.3729746490636e-07,2.482971618454815e-14,1.341079486671298,1.251486745795638
1.411857683015046,0.7996912106302949,2.467994026459543e-07,2.529492277935224e-14,1.365262805703307,1.24019783237032
1.530069624214655,0.8047086089700974,1.945953636559156e-07,1.763598581508602e-14,1.316680315229416,1.303470571313383
0.06878853020816086,0.4877857622763082,2.357594843520101e-06,2.435600087320477e-11,1.512515851399564,1.153603941253999
0.1445809173210655,0.8236790599260209,4.288209815270168e-06,3.996011196399583e-11,1.473289279540561,1.175443239885623
0.1195799343792245,0.8101380569317131,3.616841552049228e-06,4.931972181054064e-12,1.502727629797847,1.151839250378272
0.3502567755878213,0.8135621806173386,1.320539782021803e-06,6.591733409544253e-13,1.406064442527188,1.195403903286651
0.3433502556395688,0.8271397217403044,1.574531322115122e-06,9.559248345935553e-13,1.430830359521027,1.175998293793965
0.5086951477068762,0.802395171168036,1.081490376512959e-06,4.542225478640511e-13,1.45477567438839,1.177684164013194
0.2224932319668765,0.5773021518725223,1.969477366954019e-06,1.474980230701444e-11,1.427058555221296,1.191104710576343
0.9009785171786007,0.8141019584284119,4.808798723145376e-07,1.756955108109158e-13,1.23072580859006,1.632003657753346
1.022077036573198,0.8151376766207064,3.817572485381431e-07,6.46358904658112e-14,1.381611766829712,1.233233932727241
1.198514281142627,0.8098132692243092,3.03854919155807e-07,3.958081372436157e-14,1.321669565177674,1.282162051321961
1.236665049565877,0.8093137830167239,3.073935698100297e-07,3.925179978818107e-14,1.307939310774979,1.28491756865147
1.495011353685409,0.8178666897290844,2.263781261583418e-07,2.358122265874259e-14,1.334066698800797,1.247840392714219
1.419317218174381,0.8140185508243529,2.773803051583041e-07,3.455582179486681e-14,1.331801244841522,1.232279325204488
1.396174014010739,0.8031012783390231,2.81059448701047e-07,3.301221720758149e-14,1.288598020057692,1.308038384428955
0.7463017654715236,0.8051988917745375,7.233304626926337e-07,2.977553201241439e-13,1.335822002600235,1.262820156852986
1.322843456970331,0.7949174320437102,3.432460666721592e-07,5.727762647974673e-14,1.379086198916681,1.244235521239202
1.002514336536028,0.8161939765407006,5.875886399340014e-07,1.847385756871507e-13,1.359502317789252,1.266514518933258
1.11133797734506,0.8045965840513186,4.277329407532428e-07,1.372909677254385e-13,1.423527495754933,1.200033714810516
1.239455753841676,0.820666653477444,4.089097472902422e-07,1.968235553883841e-13,1.393222077601388,1.215377707921269
1.363026650369454,0.7896278450356456,2.916271338971495e-07,1.602477691089621e-13,1.376791771800137,1.211868737153607
1.332959321513194,0.8194478700355395,3.050061171138518e-07,4.501956829035994e-14,1.359342722554116,1.250969330101701
0.9584308303729587,0.8261335554060054,4.989494228403249e-07,1.145448893434527e-13,1.356953733953295,1.235934840053258
0.4772657269159353,0.8090811251311761,1.138316555913738e-06,4.716384781646202e-13,1.40453901022991,1.220428414271043
1.136126699962348,0.7986700663389295,3.274103785234209e-07,4.426372723780298e-14,1.377100831450957,1.199695924776451
1.269727278607248,0.8205991546047516,2.70841320731203e-07,5.068537303733148e-14,1.380079431515271,1.225463037039744
1.256712090505459,0.8066079833452386,3.097852877584406e-07,4.734476031426666e-14,1.364870629682772,1.197188176242227
1.529967061575764,0.8158171719143397,2.025844147537592e-07,1.873392970611938e-14,1.386384956100572,1.21740018346391
0.8728505143995116,0.803239171311617,5.507312738335335e-07,2.135673531182162e-13,1.407801154614748,1.167088143765072
0.2784064056271048,0.8325355086100855,2.195224655240714e-06,2.528736711791074e-12,1.479892772321973,1.159746512646702
0.963870099049004,0.8290781898212705,4.542735600384915e-07,1.158900621263545e-13,1.382224348786048,1.195236417827749
0.9933910029796433,0.82328701170547,4.878769767856011e-07,1.363678541661736e-13,1.406506076388814,1.191386492273973
0.5198293067867384,0.7890313047592569,1.156865009818972e-06,5.591550980365924e-13,1.410909502582995,1.182677175687136
0.1348401395130199,0.7693394743610978,5.051854809087159e-06,9.753591667297995e-12,1.445483870464815,1.166087208098453
0.1589678796225382,0.7965291942617606,4.002404213830497e-06,6.064000780265613e-12,1.387298510245523,1.222036964774914
1.361079153559245,0.7987723389708734,3.111137300141313e-07,3.958720026567895e-14,1.378241575023812,1.230328605140947
1.38314884559113,0.7939216350547241,2.984040719659389e-07,3.760603530634848e-14,1.335211055225281,1.251707141888281
1.249300720499484,0.7837799750816069,3.670707754042604e-07,5.391690445319141e-14,1.311337032372291,1.234451512999261
1.180452871348777,0.7793596374645335,4.024378831311675e-07,6.28246222547738e-14,1.324459918069877,1.269987910425365
0.797962523079599,0.817773800837503,7.931509408994293e-07,2.554488083947988e-13,1.451675443229269,1.184795099681486
0.7494728981769351,0.8129378567489024,9.841298127312708e-07,4.038903443022734e-13,1.339682537184561,1.235043574420519
0.5851809304693693,0.8264697240494832,1.257373499651571e-06,6.642582106550063e-13,1.416485708219303,1.193721991867051
1.025423892037533,0.7677118067329726,5.390662270895689e-07,1.053560687240868e-13,1.284068153743186,1.3374924052145
1.061086909032954,0.761075435236657,4.890774952024869e-07,8.51471988526811e-14,1.316772122071912,1.278568060212899
1.134477887931823,0.7872632522825476,4.8565244845187e-07,8.8014931831052e-14,1.298251445735928,1.243271430614794
1.180971817749151,0.7912737943732033,4.765091694166227e-07,8.790318834838559e-14,1.278955725602797,1.256352082647457
1.094868691598942,0.7669742576346769,5.260322270193346e-07,1.033417730099042e-13,1.28288562967408,1.272369078767918
1.125999567115896,0.7737444404033732,4.668209844645507e-07,8.20378996809392e-14,1.273713634646276,1.282713663157325
1.135408806593659,0.7877478977837912,5.19109372616563e-07,1.028293049389533e-13,1.287533828147076,1.26688059644969
1.31189528086543,0.7987194440110088,4.035376674439451e-07,6.983934349630026e-14,1.287794637693245,1.280133982505432
1.281962453530004,0.7885572943788697,3.405865075666243e-07,4.886946090362811e-14,1.301267459333756,1.272662255763017
1.206896142874829,0.7757013800184343,3.110575880477163e-07,4.043465311986331e-14,1.312389468372303,1.293048541713485
1.459148965620687,0.787541530404886,2.496197233896469e-07,2.783220534290931e-14,1.331270894483118,1.275717221254743
1.511428244287018,0.8141497076113188,2.262172860814869e-07,2.622526737407908e-14,1.33393630605586,1.245999241207168
1.252386719061607,0.8332017784508151,3.074783682612598e-07,8.737396230314102e-14,1.485658450171434,1.165228491477259
1.495032783988315,0.8068052392989473,2.248882449394015e-07,2.656181026531431e-14,1.333029611264751,1.253143920812102
1.308294543200303,0.7951754011657958,2.646354286079206e-07,3.434813863517178e-14,1.335050213952795,1.250798747307909
1.432622066263056,0.8343985432688412,2.138515604442859e-07,2.291028976882166e-14,1.389510828656309,1.251177250622367
1.763369507923209,0.830441241134447,1.611488355135117e-07,1.699388990870905e-14,1.351568469792319,1.247168013202592
1.503792550155064,0.819163477354614,2.037593866068119e-07,2.23434698110913e-14,1.314323283277654,1.318990555496375
1.589231861070725,0.8238682183102142,1.780981881144909e-07,1.668069448925956e-14,1.360571835838764,1.24797794098708
1.342903478196338,0.8329330693475109,2.404950591621237e-07,3.259464174434838e-14,1.418255730395505,1.202739915673743
1.584090165948988,0.832954606090676,1.806145028317042e-07,1.77043200825943e-14,1.365206920555331,1.247949640809155
1.696048548185273,0.8291847551698304,1.522516577693259e-07,1.289470409163751e-14,1.328985242509664,1.254855646540953
1.628690223114495,0.8186807740679171,1.564454420676069e-07,1.240705653864352e-14,1.34349765775866,1.252967894581689
1.596367654422604,0.8332387769718759,1.883115984243428e-07,1.939849392301661e-14,1.376814760102473,1.225050691914731
0.2089661357918633,0.8014440918028656,2.829931350078359e-06,3.305881881682639e-12,1.510136909540389,1.124366733185149
0.2066747008210041,0.819174168891458,3.212637088824822e-06,3.80186221599325e-12,1.414850864047192,1.178312734438157
1.118762271664247,0.8018569643337199,5.498389915723045e-07,1.179042424699817e-13,1.369031208512545,1.203226494143736
1.011841138764179,0.784449628371032,7.265521992292617e-07,1.875866750872043e-13,1.257503542608243,1.318476469984794
1.207859955301831,0.7943112446025657,4.098616409936921e-07,6.243076926950316e-14,1.305015990148332,1.271081310959627
1.03568069555569,0.8300558686396977,4.682184992279948e-07,3.094510369073591e-13,1.452652125532552,1.154406648604186
1.452118687953325,0.8223058164342288,2.70356124920309e-07,3.008508279719462e-14,1.339463544764976,1.259322025622872
1.02596152533379,0.8329782798474202,4.364899125290205e-07,1.658970015813844e-13,1.247423686677962,1.298828314989128
0.2157033374579481,0.5451184232718035,2.007375860560345e-06,1.708312143232055e-11,1.39868649569294,1.199021830438997
0.203625102494454,0.4844397328883576,1.958089298858379e-06,1.676964990748139e-11,1.393396482535501,1.199911206503763
0.7335700008106507,0.8161283106588041,6.654869549788177e-07,1.745333894202384e-13,1.491444210174162,1.174987844908269
1.377862144344661,0.8339409940675209,3.406583680359953e-07,5.445519664861957e-14,1.430613081845353,1.186620382147128
0.2799742467356178,0.8008059900521337,1.520562566260864e-06,8.468264866903096e-13,1.350730494964157,1.240394142774109
0.2625779001528175,0.793761251379594,1.522971541753222e-06,8.499928575052523e-13,1.35237316995217,1.240974256630552
1.256051140252253,0.822616552132754,3.311682150968009e-07,5.214162967258715e-14,1.318930589103537,1.240471405722361
1.496691768353926,0.8073563111187231,2.637515811476268e-07,3.35305687067441e-14,1.336716445322282,1.253285560842841
1.347006861848482,0.8030957443095192,3.182656892766097e-07,4.353830671634775e-14,1.332153766966593,1.246817204416199
1.293794289161647,0.7878860795014488,3.594028895916115e-07,5.044361020615543e-14,1.359077248469188,1.244680614153918
1.239562890416263,0.7826328254893827,3.63040775741257e-07,4.981567873542293e-14,1.338136953836186,1.250667020751715
1.292427202361023,0.7992683652926292,3.619279009780356e-07,5.544818378742286e-14,1.384671129023355,1.217938058750418
0.7733871841593528,0.8411239290847248,9.307753596739282e-07,3.997159693265851e-13,1.425056326393779,1.192969614472524
0.3944316460934546,0.6114186968617045,1.558219121070558e-06,9.258629985829535e-12,1.508301703483824,1.139279293024528
0.5684157090451996,0.8392142369138619,1.024496407935032e-06,2.43874328417676e-12,1.322198899494193,1.496229884282299
1.56832334798447,0.8142324729525884,2.263015076754627e-07,2.522543527666698e-14,1.345116022140441,1.270564991318543
1.189454443752879,0.7758305088709974,3.280471431427218e-07,4.605885859298792e-14,1.355437330512388,1.236540926900005
0.882507178347908,0.8244088247420523,4.808236304973809e-07,9.474282460090061e-14,1.431409912836488,1.185236274078773
0.3092365748861756,0.7954132925561922,1.281924821398825e-06,5.780854484060145e-13,1.416165442090647,1.15976228162051
0.2568012960375403,0.7580062262819143,2.968716166172213e-06,2.025815883577713e-11,1.449138258328952,1.161539167488315
0.4525560052148243,0.752796812081859,1.292939644702091e-06,4.925691707357481e-12,1.440214350204203,1.15454958225444
1.224847443924146,0.820310241751919,2.949638044913773e-07,4.050796849198446e-14,1.401850680469499,1.196045097803002
1.446726846427098,0.8035305150616214,2.461768046852923e-07,2.68642984304939e-14,1.376397435200366,1.218690473237266
1.3189937145927,0.7951898045661894,3.394567821070054e-07,4.641207218298337e-14,1.367469300464343,1.236470654698929
1.262261630445863,0.7788170648159882,3.63480281619727e-07,5.283975999970527e-14,1.275992281280197,1.316500234864762
1.15416583715619,0.7849600518980026,4.191733071366045e-07,6.649134001747068e-14,1.300178727518507,1.266996210651967
1.157464833540827,0.7751389668549041,4.473425197327759e-07,7.588866666328074e-14,1.339469210337808,1.252617766685883
1.151585322911495,0.7869332818060887,5.160373394491132e-07,9.750023880175414e-14,1.325588851525154,1.257500953481277
0.9992909481385793,0.7782670768599778,6.320345067204254e-07,1.463851579289323e-13,1.233143209300205,1.352205917119548
1.057773923743175,0.7728677302996335,5.385418981907374e-07,1.073861346134774e-13,1.30438156083693,1.287908800755913
1.201037132187452,0.7746140962855702,4.443883536162788e-07,7.344759382805923e-14,1.330391484854735,1.274541106350476
1.235288930807375,0.7812818376556382,4.376716519908573e-07,7.313085150004134e-14,1.354502345155463,1.215479202116591
0.5223518257355145,0.7908549112977176,1.118172142005323e-06,4.544908048083997e-13,1.428138658593387,1.199928069124165
0.2926113025443582,0.7664697875697299,1.040886228809726e-06,3.911259003190579e-13,1.430154733503945,1.208707345179054
0.6192743852340621,0.8066450728507157,7.053319845506208e-07,1.944773427436843e-13,1.391164575998255,1.221005337138073
0.9176683417931502,0.8363718648597376,5.893502984256543e-07,1.404051581507485e-13,1.405521423741495,1.216162509788366
0.5260198408883047,0.831762806465908,1.039791629447236e-06,7.649613880562292e-13,1.298505992664479,1.359011977767575
0.4155193255852832,0.8031907984226507,1.152910977160401e-06,5.132960938951951e-13,1.392637492796381,1.249239320251198
0.458484970115637,0.8087331327156191,8.858692050492747e-07,4.235286035198188e-13,1.302612070510561,1.212138697637397
0.5120493776123076,0.7887028261540819,9.277625962956202e-07,3.316217292142946e-13,1.31619028700461,1.253628108125503
1.629680526450593,0.8221842915078574,2.075514270397531e-07,2.234002232442003e-14,1.413938079014606,1.195855800807891
1.642244552457725,0.8240927318283503,2.015909714178661e-07,1.992641598330248e-14,1.380320003547078,1.22521056754879
1.641429535099064,0.8286773765345591,1.978457215591612e-07,2.056668512852898e-14,1.409850350887725,1.20102259731004
1.663037724411562,0.8272438528550765,1.941814349094055e-07,1.984744764349475e-14,1.363283717617358,1.249808875382106
0.636731402815616,0.8002037783111746,6.904310616170976e-07,2.299785653442243e-13,1.460952276756558,1.127691876653004
1.356816416978782,0.8180102874009243,2.585127612401198e-07,3.335171302374011e-14,1.316504368622941,1.268272627727023
0.93933247618962,0.8059726448594123,4.251416319152093e-07,7.303619502758766e-14,1.386879002450101,1.216272908082783
0.9430865844033982,0.8126645454734278,4.336885671421554e-07,7.689969196415004e-14,1.361238261293505,1.237159751937466
1.602203341790227,0.8213553006108244,1.791474811424322e-07,1.55062630168799e-14,1.376355037274385,1.220638296300659
1.666818106507993,0.826707817628666,1.641396994316905e-07,1.496813014343932e-14,1.343350734235242,1.2506766307275
1.152287858417373,0.8189972249461471,3.448454085015806e-07,5.239175669764028e-14,1.347171331689182,1.253098819080895
1.268061504244449,0.8175038793982028,3.256767350637418e-07,4.664799277385116e-14,1.317671004064375,1.270220177134263
1.384188674185535,0.8192219543139541,2.890617485810636e-07,3.695867574314806e-14,1.423976471017543,1.185649103192997
1.409113269890135,0.8080037827117243,2.41652432887117e-07,2.52839473751981e-14,1.37011622281182,1.232841432958021
1.396676160014085,0.8042754214546526,2.610054799607057e-07,2.94175924920244e-14,1.374243100710789,1.210045584910284
0.8878472338914996,0.8231200726985629,1.517205382529208e-06,4.667813771656852e-11,1.217779494812485,1.537967993122651
0.8073590352284457,0.8224704871026292,1.417513399669075e-06,2.108857482819352e-12,1.357065945293834,1.197909626965591
0.5352228045104578,0.8186615240641303,4.471665915434303e-06,1.859203534557286e-11,1.42260743677864,1.183444286415189
1.031814722184095,0.8273986058566418,2.502320690067339e-06,3.022476718450903e-12,1.397586232394877,1.203842245411062
1.045259990083074,0.8166299405743402,3.142983435146931e-06,5.022438612316069e-12,1.4285752707289,1.178403695310528
1.123487718575271,0.8196009498281569,3.431871017034539e-06,5.314641017565626e-12,1.455254761825873,1.180179265646295
0.8345431822300255,0.8206080803996879,1.446375628371213e-06,9.72841861558039e-13,1.480662284035786,1.172130486627227
0.657461017302565,0.8151244567876588,1.854534244233829e-06,1.418513679958796e-12,1.40943546322762,1.176259746415241
0.9956924594657417,0.8312950398039597,4.148787770081293e-06,1.362443029728089e-11,1.462120045942294,1.166941919499911
1.320487974750325,0.8272693466762391,4.682931856980679e-06,1.147661796290548e-11,1.414940148540798,1.217880640547366
1.140585450355059,0.8132366901179754,4.483763522774584e-06,1.2301025385892e-11,1.364847922053946,1.316006925192172
0.7507402522452813,0.8221313703600931,4.03553034317156e-06,1.206834792761969e-11,1.343313477531489,1.260892027801093
1.049919787263726,0.8218042077245534,2.546616863984717e-06,4.108783307680721e-12,1.359248004621233,1.201310200891001
1.031647671533388,0.8297982145758558,5.655002907156269e-06,1.33065187895377e-11,1.445774870795586,1.179971605982635
0.8678203734136887,0.8266680968940213,4.443695535378922e-06,8.827344046408972e-12,1.443368277947491,1.187812575291976
0.6464532386852009,0.8404232770286718,3.815970379075055e-06,8.026929729650656e-12,1.415470454704189,1.209413264411331
1.61534031547964,0.8135060661811586,9.889137431843584e-07,7.250465083581045e-13,1.378160721305078,1.223973309697635
1.642126806158779,0.8167500554143106,7.397533955412718e-07,3.660606384942557e-13,1.368808119925181,1.309987915974068
1.53936572326544,0.801913471303644,6.990710819246195e-07,2.759484464257673e-13,1.367026904835565,1.240737240519854
1.476291089557042,0.8069215756025109,6.971330406787005e-07,2.471497044048964e-13,1.383245037270407,1.236736929487421
1.438884368402618,0.8044636707383332,7.09747554692214e-07,2.692012580731527e-13,1.347349346666665,1.273181741619776
1.523354669317357,0.8121788016228599,5.949371596501691e-07,1.952225427311346e-13,1.387418634546264,1.230498226978166
1.396232811683545,0.7932636429775958,6.762988202715471e-07,2.22062646723368e-13,1.294151659658862,1.315364797726034
1.444875016932052,0.7881525399808891,5.743297670773484e-07,1.575799257237922e-13,1.298358235609635,1.321735780280106
1.373776889453725,0.8114649328653214,6.268082514222701e-07,1.84805366007292e-13,1.37040790644461,1.227902293249558
1.353530907763271,0.8060391790941638,6.16245457355534e-07,1.688453327612284e-13,1.361758183952049,1.249403000944428
1.409797511010282,0.8115598858860205,5.980624561248009e-07,1.756290672590987e-13,1.335376991575078,1.257786619371103
1.336143340664507,0.7964111500162908,6.27260505141123e-07,1.719707303924408e-13,1.346331798413414,1.244439322877074
1.299993296442446,0.7988539904220398,6.322155576205518e-07,1.70341994779522e-13,1.373640938681022,1.223244056250898
1.251415798236745,0.8007739573301829,6.360284627586154e-07,1.781426926491542e-13,1.359184243313131,1.226863450310304
1.281857236155693,0.80433052760582,6.652463233125057e-07,2.024215018515659e-13,1.401900786104085,1.21420191915743
1.30517666995293,0.798120791538018,5.959772034205496e-07,1.547152777750027e-13,1.369215834558915,1.230812921806917
1.295904490732428,0.7954263820033545,5.949839251583838e-07,1.481654269415645e-13,1.311310993900715,1.271060944031667
1.275982657963179,0.8081288839954458,6.478617433920077e-07,1.996111814672083e-13,1.38785862294,1.219377360944748
1.258492289004365,0.8043031287251354,7.091421961557575e-07,2.28977934501559e-13,1.380774420541997,1.235713452091553
1.313819554280849,0.7863718039603343,6.264210116087033e-07,1.615096611797498e-13,1.297360903185216,1.297858187913866
1.3004705057226,0.7939102867672327,6.367388896709831e-07,1.708078885883259e-13,1.396687371018386,1.222420140288047
1.246247311988234,0.7894313599872378,6.720189388984242e-07,2.091905612424732e-13,1.290687941589827,1.2452941956587
1.162175889995253,0.8046325331104066,8.375474616236911e-07,3.020624850992546e-13,1.40957750169687,1.227680804333021
1.356012495710615,0.7905148301167787,6.104088562035882e-07,1.542885778868636e-13,1.336733941252294,1.260414063751193
0.8633907396713473,0.7044217543879436,1.128778570999662e-06,3.473839102002046e-12,1.362113218796628,1.2241559854168
0.872767838377132,0.7289594719019953,1.183029348165512e-06,3.756743974288403e-12,1.420024028014777,1.178536961150353
1.429622641498244,0.7901188209513145,4.960861374256278e-07,1.057729567612584e-13,1.292393412828165,1.338161104464727
1.323087398101832,0.8087916080418794,5.613715293694931e-07,1.414607377827013e-13,1.315057495523962,1.25241456074463
1.334449337311449,0.7983700432507851,6.165201313557497e-07,1.609861146592789e-13,1.312802589353336,1.247263316604714
1.103901127482085,0.8249226908074626,7.426803148116716e-07,6.33322180757335e-13,1.45319788115508,1.188461057533658
1.082606850967899,0.8207067896099142,8.552573619315603e-07,8.029750790226959e-13,1.486372735441931,1.161946133413781
1.28791364790103,0.7815744747613105,6.240860447870792e-07,1.457919842062612e-13,1.315930455047855,1.29606762756928
1.21925068742989,0.7861332220476314,7.090395061364751e-07,1.998512441389825e-13,1.359209578092236,1.243793603024741
1.234896650591158,0.7834445722988982,6.73158697791832e-07,1.66386167490557e-13,1.294656723561026,1.308666196064669
1.228931745124243,0.7834005201367673,6.420883110443905e-07,1.64055051320509e-13,1.313651721693849,1.261418502207228
1.18601168755404,0.7962648462394528,6.346794091536125e-07,1.578601459347883e-13,1.309518408235873,1.203068491779042
1.22679141737437,0.8081251327324183,8.075922550245551e-07,2.965351486167441e-13,1.333260184811319,1.274150066799173
0.6760356958623445,0.8174728964696656,2.506342446317298e-06,2.749926311576583e-12,1.425495701152617,1.186196191527954
0.5733758863317509,0.8298898323256635,3.696198692877462e-06,8.387132635008534e-12,1.398505890793401,1.189640428804362
1.212231381673474,0.79064227527901,7.519427002839474e-07,2.098183138054033e-13,1.335692470709148,1.280312551005867
1.176117836320226,0.8006815802407568,8.283357666667186e-07,2.661145286593865e-13,1.310086127882782,1.256372756208633
1.178042375206221,0.7875692212536423,7.924183053510767e-07,2.338610146975083e-13,1.279730470024979,1.298684280211055
1.18483960429249,0.7859398515849555,8.435399596725495e-07,2.595460570361789e-13,1.334874135754179,1.261537828253553
1.058700523013014,0.8040959019352785,9.031041614164484e-07,9.16963868163333e-13,1.397922876903565,1.213139343428841
1.063457915391857,0.8056024027256037,8.984609181207117e-07,9.060505564928044e-13,1.394453038754868,1.217512947775188
1.144334676073731,0.819008761033523,1.21026590916682e-06,1.367161206020326e-12,1.32193779484203,1.303521857230737
1.166803596443085,0.7991242211781515,8.003461188830854e-07,2.518443342944718e-13,1.319594883694704,1.279342380632418
0.9570985750906172,0.7993510357039494,9.702346721331943e-07,2.308170035378743e-12,1.351395228694411,1.22089819928266
0.9357160980917523,0.7715690150815657,1.189444996758352e-06,2.828942841169231e-12,1.287044759205706,1.263293171180512
0.6766307393284494,0.7974504654562151,1.770270746366656e-06,1.386263347361289e-12,1.437304987745933,1.188137648519277
1.161865043433016,0.8352031164771071,4.004019543783127e-06,1.050695815232822e-11,1.436035945852067,1.182413352717788
1.206659931281705,0.8305342903911073,4.822247578993635e-06,1.044138977268891e-11,1.437480911687124,1.18237398769333
0.8575536663878143,0.8157264401680928,3.312923572662664e-06,1.15484482206865e-11,1.361965024196373,1.234215559502806
1.167713065976521,0.8392732179914169,1.244944322955863e-06,1.113336081060885e-12,1.452744267328743,1.176525114628072
0.5683698899113445,0.8291762068572242,3.119811184470185e-06,5.234026305153659e-12,1.365193758346455,1.240263301474282
0.9622757758189706,0.8374709101887298,4.64209132656766e-06,2.580297265783396e-11,1.405080102332487,1.207325397742018
0.9950869525309232,0.805384380884861,2.211910289481915e-06,3.03879768538558e-12,1.438382877857894,1.188556718114476
0.8617138998602617,0.8249544379226526,2.402170127904722e-06,5.089231573795387e-12,1.432673590120086,1.192876517379133
0.9783692361898028,0.7943729052706685,1.24143918042943e-06,5.970089968783104e-13,1.394556039090151,1.213358837439363
1.046999931609757,0.8168101356551879,1.912918202137553e-06,1.463681042374878e-12,1.440500648604909,1.183066708305984
0.9922866123304585,0.8327519268819791,1.778177856235608e-06,2.032152428286165e-12,1.461996147490958,1.188584300176088
1.193280278227841,0.7943168563698498,8.630963015676591e-07,2.962735624130073e-13,1.285675876018116,1.370838206046409
0.826090449018591,0.8091546579704897,1.68207460278528e-06,1.301090863856472e-12,1.399202077942733,1.201312904976767
1.056003504496195,0.8139722734055007,1.702511375646997e-06,1.158783201406858e-12,1.406819618942998,1.191446740911239
1.14909694940068,0.7898485034439858,8.939211980400371e-07,2.861423360213704e-13,1.315069902530834,1.268307098716701
1.181414130540708,0.7885816913020519,7.98674052372848e-07,2.350474834877823e-13,1.287882403435946,1.310964739511404
1.168769795964087,0.7884154923736821,8.864426739724381e-07,3.223716757342983e-13,1.408325821174146,1.206716932264985
1.187539426712225,0.7879050174119823,7.565981894166715e-07,2.132646151917813e-13,1.315945565224334,1.267342602295937
1.207453386948832,0.8227030964760316,7.040906188318344e-07,4.577263074812286e-13,1.407631436353044,1.211381902028627
1.0709913533036,0.8378860515826376,6.098889854887505e-07,4.121963425142961e-13,1.450492755725163,1.190138274692393
1.316075929421274,0.7933986474952379,5.15429946198134e-07,1.095024774827891e-13,1.332556090708232,1.264003279576704
1.054235981002421,0.8184459651143355,7.882176766940788e-07,8.028094332611775e-13,1.421720292196724,1.170945246858997
0.924072093729697,0.8086777922495286,7.315963306990681e-07,7.459654983969539e-13,1.441264599795846,1.171014991848625
1.412116539935842,0.8015450127210897,3.614965367609844e-07,6.08565012066744e-14,1.27554559095893,1.315940927006663
1.20482723896781,0.8086023478816278,4.510591575651523e-07,9.058795542790855e-14,1.398971596565854,1.210380772060934
1.321970776548815,0.8273921745586498,4.088425939999547e-07,9.032595034148227e-14,1.409301083371406,1.201097272907191
1.292675508755516,0.8147995378407746,5.237617377574704e-07,1.326529367492078e-13,1.423300796662099,1.199205145637205
1.162578308126156,0.8194902932646578,5.531025330248002e-07,1.213693546253537e-13,1.357543316318568,1.239700120610157
1.213274021751878,0.8106507781219635,5.981424670640939e-07,1.494324157157134e-13,1.357680690655715,1.238351157956706
1.274942023431079,0.810915035003362,5.715393328832852e-07,1.438491687193799e-13,1.341197332004427,1.235098015406486
1.221779693652753,0.8004045258452848,5.869680151668112e-07,1.402636752413242e-13,1.35778969115248,1.24290150033621
1.3114354695259,0.8081623241158447,4.770496947370602e-07,1.069261342741762e-13,1.314749802686189,1.264533280807594
1.300415602863274,0.7901185232386734,4.984315930420375e-07,9.401108125295991e-14,1.33492168497372,1.260181324857633
1.190432223544712,0.8079270415746713,5.603755176037065e-07,1.254939774749765e-13,1.398722226224034,1.218719522690992
1.188710007710457,0.80112106328232,5.586972917049894e-07,1.27922041292934e-13,1.347429399007565,1.24058108333477
1.071002572415554,0.808803852511735,7.61390341168825e-07,2.702745374476322e-13,1.340377413866169,1.262926460990416
1.089995787069776,0.7969441311162153,7.717890983875697e-07,2.367595611639534e-13,1.305840266816032,1.275839218766312
1.143874827937523,0.8035304164507372,6.130792481787324e-07,1.512745473340993e-13,1.286926783388902,1.259340120999328
0.9503297923965299,0.7864797561078287,8.988572826115592e-07,4.163463056736318e-13,1.434375182346781,1.18050681822988
1.257192540400331,0.7922504186320897,6.29097520124987e-07,1.638532276050538e-13,1.318882761930416,1.261015689911497
1.301973670309056,0.7906345532365223,5.498934655447337e-07,1.285178216314477e-13,1.307449678526098,1.21753697947939
1.134019387160516,0.797744372061226,7.004717528182436e-07,1.825581282278537e-13,1.351941888275066,1.248252241437931
1.226545509614559,0.7929449238409085,6.77044786465701e-07,1.750955556905489e-13,1.338107842389069,1.239937073169863
1.20104126425313,0.7886505319610714,7.316003578149008e-07,2.005201599072146e-13,1.311067604570596,1.288453878587449
0.8100994075702254,0.7235093561820782,1.337374157147292e-06,4.773930481710063e-12,1.450022521687835,1.176246762782346
1.17125593831831,0.7867931275003822,1.473435438375445e-06,5.195841162537434e-12,1.445722563221673,1.179948334483888
0.7852828657779211,0.8370755840846494,1.033106375062435e-06,1.098666661861078e-12,1.468635815489713,1.176961380266179
1.238439145188324,0.7988465691747096,6.034690788378157e-07,1.449274820477873e-13,1.379397110267877,1.220781738778939
1.259901074940307,0.7980330372084439,6.077058315385055e-07,1.450382921600461e-13,1.37825039026136,1.23977561022059
1.192401704288927,0.7948086279516633,7.245470605588091e-07,1.984995705939236e-13,1.368926187600042,1.230659922495455
1.193561660879556,0.8017829965321045,8.746031566822135e-07,3.058342149051776e-13,1.383281915570827,1.199744417360066
1.085981434240731,0.8082653190254566,1.100894334092076e-06,5.747120426451441e-13,1.44210005120246,1.178061928757216
1.166393127012294,0.7957191881321423,9.901992941832406e-07,3.971887544979186e-13,1.383494153710694,1.22167865492828
1.094667711985464,0.8074644601587975,1.335747701305371e-06,3.015480438047043e-12,1.457471833866652,1.168684116687803
1.026675537439876,0.8225417463900303,1.100308862413634e-06,9.757616480961106e-13,1.395672024302176,1.212128738690684
0.9736080614704073,0.8119292627832455,7.406441779765834e-07,2.32229612500296e-13,1.389163970487324,1.225762511639275
1.300711908065076,0.8012292281993896,4.743679980238319e-07,9.384737236546682e-14,1.379462903664839,1.226732937108684
1.285241564260725,0.806567998733192,4.664988707963848e-07,9.140566848065228e-14,1.388609904106491,1.211002349545397
1.235746448225183,0.7997431781634785,5.451038394821447e-07,1.168015200141652e-13,1.370233649298203,1.230179292564749
1.068052643957666,0.8000578427136404,7.757482840544647e-07,2.520210461129604e-13,1.375445236537397,1.226118891981767
1.125213168050723,0.7995277293187415,8.333562281487499e-07,2.677486449235368e-13,1.329295830805502,1.266897277760375
1.003442809708273,0.8157060371512534,1.025507290587285e-06,1.188449843744632e-12,1.390862045198708,1.201524100066597
1.11389287332856,0.7979121552357922,9.246448510516942e-07,3.768934933758854e-13,1.309580581845358,1.279555151309305
1.142083904056217,0.7792096663086421,8.477565632441884e-07,2.724252409600829e-13,1.29693576841537,1.305377852673526
1.155887173604357,0.7877057672423047,7.986777834629862e-07,2.330902614261292e-13,1.359445899816478,1.25243711534199
1.185056865352617,0.7888926954287286,7.37133942872426e-07,2.042904011507487e-13,1.368018785984547,1.243068388333564
1.152638991617564,0.8060536224422103,8.647009714675948e-07,3.299270826392875e-13,1.440485775372288,1.182922730476638
1.093776842140735,0.8007710543428772,8.954102305781183e-07,3.783913603502924e-13,1.423386703122238,1.200147747784646
1.183014570321319,0.7860459885934161,8.495395285238477e-07,2.677911062985066e-13,1.314670014790462,1.27383537259674
1.145627711744365,0.7979736792791722,8.721987947220912e-07,3.730176899171978e-13,1.40550323753976,1.20362103783553
1.146772677219825,0.8043850355596512,8.680488735714685e-07,3.712271374993389e-13,1.408063416905366,1.206578183461976
1.17268686268957,0.7939608407988155,9.118438947280366e-07,4.207090388419962e-13,1.313947580574512,1.277489216916819
1.134596236815578,0.8033461863837134,7.930859399845872e-07,3.790266595917353e-13,1.333102775029333,1.26584974246506
1.120735318652096,0.801754665343086,6.930095704291511e-07,1.831721987136688e-13,1.351005691654569,1.249273919659948
1.256911233644269,0.788864985758488,6.330190460300306e-07,1.552834750254485e-13,1.319612324887898,1.273459680856757
1.228211740869312,0.7885319494713859,7.228641951326511e-07,1.986812594028956e-13,1.378942787789338,1.223693178474663
1.175518675725357,0.7846754260094797,7.771493905909811e-07,2.318152782197345e-13,1.303618395281001,1.303322493084324
1.092781612869461,0.7953615129363282,8.922865266745226e-07,2.840929789286486e-13,1.318538028165582,1.260769280262443
1.122242043688222,0.801694235506601,7.91305530459456e-07,2.323866577742628e-13,1.376191621430333,1.23910231305911
1.0916682955144,0.7949004654413129,7.591615061103213e-07,2.085287761482105e-13,1.340700426725316,1.238740794547497
1.169714346082136,0.7995827680704538,6.705525322573241e-07,1.756298070771456e-13,1.280700790404407,1.311966419208705
1.187190081278559,0.796150267474486,6.919889997583748e-07,1.86899966402539e-13,1.344435495757859,1.248812803855163
1.012893410091392,0.8195859035932821,9.924495952236254e-07,7.629237643783664e-13,1.460661430093462,1.171209601815851
1.211713343917479,0.792816055635451,7.149045634980902e-07,2.027941169946793e-13,1.328215530025126,1.249580818678769
1.179205868740208,0.7996849346172745,7.173494400512623e-07,2.064521096415681e-13,1.333935691400597,1.244896973013371
1.179192862522597,0.8030919133305131,7.205229131276448e-07,1.983117789599836e-13,1.36240169447672,1.220009094478299
1.101270884190942,0.7976014008797864,7.085578036922994e-07,1.844229227438084e-13,1.328093506376745,1.258542502364815
1.204531331547175,0.7859411678888646,6.140081048423415e-07,1.402030009903014e-13,1.298108509363227,1.310493915150297
0.9622026524251923,0.7627449485512486,1.053934242225914e-06,2.221733122607146e-12,1.388797213997302,1.195708286348313
1.152023987135495,0.7922639724987759,6.071426327426684e-07,1.420163141464244e-13,1.351968413700438,1.245084139575003
1.081096260535624,0.808941862668841,6.535568067830914e-07,2.195967655542314e-13,1.372349652191925,1.211790623886532
0.938435041155116,0.7814740649022708,9.108761196095598e-07,1.681321133553265e-12,1.425143270360155,1.183554013487459
1.209217599764897,0.805354933779957,8.571720992257625e-07,5.405539512366775e-13,1.352291765136657,1.260200667362423
1.150536329808956,0.7788795562545999,7.17395757614246e-07,1.941482772765904e-13,1.321614570263527,1.211479523341847
1.136542833554054,0.7958742303807579,7.918317685356981e-07,2.343027516962136e-13,1.329093805101512,1.250779339477243
1.1982026450539,0.7918948913327821,7.434173789555924e-07,2.073610096188293e-13,1.290497471608482,1.286012841178324
0.6410614417209995,0.8141251268414855,1.621249202315275e-06,1.685019628122701e-12,1.340933481503982,1.199680859372258
1.151246067202188,0.8064869620366925,8.719740551883244e-07,3.282765637622852e-13,1.398888842337114,1.208930500440518
1.080894168527835,0.8192019772660056,8.562069818095329e-07,4.034039901581693e-13,1.399547358013202,1.199595263057063
1.102758185752048,0.7896153151009577,9.065434446098824e-07,4.570425779510732e-13,1.31258748498209,1.353260048187015
1.109338060088283,0.7941409208871472,8.018190753821309e-07,2.42622844253055e-13,1.406988236830383,1.207480807281448
1.092604890794254,0.7985004323583091,8.385052982688803e-07,2.816239898750586e-13,1.41501658393047,1.196557902145624
1.140394074310813,0.7821572792110635,7.80062935350217e-07,2.181664134627317e-13,1.353774497379151,1.22878488854623
1.129689735058127,0.7914534142609143,8.669834366012589e-07,2.81435264099404e-13,1.397894147394572,1.189533807351928
0.9753243726223634,0.845830818169173,1.424603069735417e-06,5.161006161897722e-12,1.401809777945975,1.197063790340497
0.9520149004975398,0.7988890593027951,1.882033915687842e-06,6.034718452377233e-12,1.417650670427202,1.177867271263522
1.2930700508254,0.8255986407916064,1.230193033798465e-06,8.616087676767546e-13,1.363518166563215,1.250400844642932
1.163147392538572,0.8205879136130371,9.796319228756297e-07,8.746376641372582e-13,1.38699617455315,1.204048890224811
1.402786040786717,0.7974799570281521,6.797444940059057e-07,7.116946330337479e-13,1.368101718203453,1.216496526496626
1.260472457369773,0.7841281195309143,7.297198979917231e-07,3.787281814951871e-13,1.234798168929069,1.352608373363489
1.120806847149611,0.7826157560034057,7.342037445110644e-07,2.058396759100594e-13,1.284817643177613,1.281069652602942
1.018742729228101,0.8052180746168722,9.385798754476157e-07,4.652179061286861e-13,1.401181654663128,1.217489297009764
1.135680055735478,0.7986794840096683,9.203434427646845e-07,4.711831894825828e-13,1.393176158034484,1.222080304521338
1.140845393465523,0.7891660543883058,7.287058137955625e-07,1.885407454440485e-13,1.262867607728491,1.298906842693098
1.073880886675155,0.8036003060053264,1.008359210683233e-06,4.188831889212895e-13,1.424675298559896,1.19810509032868
1.144978305202737,0.8002078097019256,8.790811430002604e-07,2.963887948771193e-13,1.311727321145447,1.224057284005752
1.128106176583917,0.7823253439006014,8.756814134599555e-07,2.711213933367014e-13,1.286666074373791,1.252619595812601
1.154839067016688,0.7873575082372154,9.438742398497402e-07,3.23038586589092e-13,1.333441510833196,1.249674688956046
1.142661826431531,0.7869307290894186,9.588500621016276e-07,3.275510062085285e-13,1.327848337263708,1.254652335778619
1.12794333988053,0.7855135055607705,8.537059117330378e-07,2.544738887057923e-13,1.295655688789363,1.279609680136799
0.8918107457720378,0.7683405941570377,1.289887295401346e-06,3.575108974782627e-12,1.394453718955109,1.214008665252699
1.106839222346449,0.7911845494464956,6.993413311394395e-07,1.801576234565772e-13,1.331382767081635,1.255229792587991
1.003661745748783,0.8087647653864821,9.06293685384466e-07,4.347579214116902e-13,1.443562636364412,1.192810596136223
0.8843636213794729,0.8369509543179363,1.870686572737809e-06,3.027675600212435e-12,1.41792333793464,1.194519515861198
1.030222748522197,0.7532792220662584,1.297541141131469e-06,3.911152528705109e-12,1.455281068319399,1.174509753476474
0.6884718455142202,0.5607555585238265,2.597435003538977e-06,2.599324499990082e-11,1.448359843715362,1.164124013616598
1.384673266863143,0.7904528536593199,9.401947746722658e-07,5.840742381221378e-13,1.226946040150473,1.573318356884947
1.028556593910522,0.8084754338809979,9.388208422725359e-07,9.79776062130809e-13,1.435577137753209,1.176959907189078
1.062737127798108,0.8145092259390031,8.80192490505207e-07,4.485063601620501e-13,1.458194880204368,1.184988471010914
1.103942301164295,0.8117677301874233,1.063569675068804e-06,5.734494134474188e-13,1.456061217837722,1.17980399846467
1.11799329279553,0.7842929638241746,1.013957037903478e-06,3.673754851820817e-13,1.365815406926663,1.224506458489956
1.075705148763981,0.7812274804674688,1.014970996884251e-06,3.579707915522283e-13,1.30010573072461,1.275822009519562
1.082058979886421,0.795312137233619,1.130680262421275e-06,5.536288060383851e-13,1.346736961617245,1.230083450972252
1.084197651920089,0.7807504337181675,1.096267889487105e-06,4.20272838411297e-13,1.294014299217088,1.291950653063759
1.053137842429651,0.7997048908660089,1.059939104239223e-06,4.325941939916328e-13,1.375295972466309,1.217250928447134
1.157615758217208,0.7863741610550212,8.912641923544967e-07,2.905607411013037e-13,1.32031515351105,1.27306243101356
1.121564506167873,0.7928035824642538,9.6661773371926e-07,3.652820634381774e-13,1.378904845668401,1.207066461048603
1.027661424387591,0.8166120573669836,1.076904913312539e-06,9.072904720864397e-13,1.397790769572615,1.216352117135641
0.9850204183568796,0.8187639427344237,1.271861612551585e-06,1.70328787703465e-12,1.391570054899743,1.210596481893709
1.165459290011512,0.7872259558623178,9.526025185987124e-07,3.323764755198245e-13,1.357162085061018,1.263477498762828
1.11873194074407,0.7974052824870045,9.129867938889487e-07,3.113315349650513e-13,1.336109533478397,1.238488354424794
1.1240296016492,0.7776174518651741,8.773701973657242e-07,2.699297270823437e-13,1.317907587391488,1.247576591906105
1.051138231644276,0.7815981943641448,1.023239037817294e-06,3.88036993090017e-13,1.334060785960091,1.249797788763796
1.019691302937328,0.8029538734169828,1.276553830568601e-06,2.460511048043283e-12,1.485060512611817,1.15602535454393
1.014921598651905,0.8199038687503911,1.2461846333182e-06,2.460157178832496e-12,1.473009960333993,1.16356896314545
1.123623521555929,0.7839962228421145,9.972764324692408e-07,3.573650326798153e-13,1.300521927745346,1.271938006440699
1.118483341876579,0.7928117159016365,1.124433199900442e-06,5.289175469882114e-13,1.405215868499523,1.19395747425964
1.052923649413558,0.7921063665385003,1.031585616833332e-06,3.817803588160554e-13,1.295763401863661,1.274754208883192
1.065336787449427,0.7978813743500293,1.023123339809201e-06,3.809485811846371e-13,1.341255159195827,1.22353611002812
1.151725699287224,0.7889246808805057,9.417076589671395e-07,3.154860443061822e-13,1.384814950290932,1.217760035644547
1.113843127640949,0.7889942465430207,1.071022307067773e-06,4.166451182938072e-13,1.404064579408585,1.220603054077009
0.9927907648056442,0.7149741077542631,1.934872041837772e-06,9.60819248042004e-12,1.388358649720912,1.203910661624732
1.231217157183909,0.7909467708097465,1.020969635225279e-06,4.147443707906588e-13,1.346317709387292,1.258796059953141
0.9840852025022376,0.8200585335987683,1.283403415437834e-06,1.187807748443181e-12,1.415364370454638,1.198596271923002
1.170209971590742,0.8205907630405357,1.494537608292101e-06,1.458984636839012e-12,1.424711560342561,1.201429643635558
1.127998292620362,0.7957695545848253,1.125469233203559e-06,5.490952408800132e-13,1.36059304582993,1.227475485090992
1.13369874951132,0.7945228152668613,1.090366798097984e-06,4.338383524458961e-13,1.345621504029214,1.228459836899237
1.079081130820361,0.7955312246235965,1.159493646766845e-06,4.98934127130916e-13,1.390436780293468,1.241261760264496
1.093426217344392,0.799242554768759,9.077538614742648e-07,3.333411688551472e-13,1.389064215845264,1.22688116939447
1.164771436573924,0.7891267818379113,8.102842165907604e-07,2.476034099128651e-13,1.282886779600206,1.327524375848864
1.13166430717533,0.7914282869829579,9.171463025772288e-07,3.475201774985556e-13,1.413365607287219,1.208648409821334
1.154619546957642,0.7821126111007207,9.263772917557954e-07,3.018996860432121e-13,1.328752289960319,1.262222833025731
1.204940742681566,0.7907603551031395,8.84363982422501e-07,3.06419972538729e-13,1.382554681589595,1.219641520731179
1.155256248589954,0.7851976988904751,8.618293873884437e-07,2.649386955072905e-13,1.308086739543181,1.267109746124191
1.144722954175893,0.7946557256977064,9.09466597455653e-07,3.002377978013782e-13,1.360142041676051,1.244525818878148
1.154428702354977,0.7861354408895226,8.840627553259118e-07,2.794190922326358e-13,1.341234284045728,1.233665244074914
1.112395197704717,0.7818350590504326,9.206261227766628e-07,3.016602231281116e-13,1.325163878734721,1.255750014726678
1.153602851198735,0.7805970901941103,9.420246277428189e-07,3.184975678220421e-13,1.275966612832,1.303991289768594
1.123631288338998,0.8067154959754188,1.08691296012315e-06,4.471986596424041e-13,1.373237837072103,1.22858627612746
1.130838907669209,0.7929401437742862,9.957782089105488e-07,3.631090666502565e-13,1.302462306525077,1.251939057033272
1.087693425902033,0.7787945589242197,1.002899556283295e-06,3.592434975185209e-13,1.326872627911992,1.236322957519507
1.098011998406656,0.7852595249069204,1.061726736665086e-06,4.184301503458323e-13,1.351544990935094,1.22715926256483
1.159630915162422,0.7800356522633827,9.814738836717772e-07,3.425698248621847e-13,1.282155084260412,1.257624118189441
0.8245076001325753,0.7506032547404385,1.70747060569728e-06,7.466469646017289e-12,1.445578216082968,1.175656040890526
0.8548287233693921,0.6457698383841838,2.051211573888044e-06,1.42609318917165e-11,1.462539224956769,1.169674871002245
1.175427084262035,0.7931080199161356,1.15464078643946e-06,5.278863113137441e-13,1.397825019099981,1.209394969248721
1.041340948526407,0.7941844688813169,1.264112345825686e-06,2.985297032256103e-12,1.474777509733519,1.169340766455862
1.126728872295368,0.7879618375981273,1.064329890296912e-06,4.005333005981841e-13,1.376201376768701,1.232875901387876
1.150084433516677,0.7897447789757003,1.040810503104791e-06,4.009436280645662e-13,1.369705970009155,1.229143698131563
1.102588853138044,0.7912168196975787,9.463847363743899e-07,3.446595511422433e-13,1.401912050538906,1.206441512205984
0.590258582982686,0.6454075865022486,2.515792066335504e-06,2.166164757509705e-11,1.453263586591617,1.157520841208404
1.080719968182447,0.7950257194195587,8.544186860759234e-07,3.007435362614508e-13,1.330794206556855,1.28241284535396
1.184577378300473,0.7843348270535859,7.853147415392327e-07,2.343026444270053e-13,1.269307245156445,1.369774624004198
1.149310878945045,0.7945900922327791,7.989495013210824e-07,2.35906736864059e-13,1.325038969488876,1.281859307140638
0.9347426701802977,0.7713287432764067,1.362008855184542e-06,4.283107882222352e-12,1.403340868594252,1.202899444045092
0.9565755313396874,0.7808201823581981,1.490505703557993e-06,4.979779735544823e-12,1.487911130130543,1.175044140470085
1.443442077177538,0.8079576577673885,1.202638920808816e-06,1.40306063732564e-12,1.331341949335036,1.273176514488381
1.440633931679382,0.810089061541402,1.200836604980782e-06,1.358460833552543e-12,1.320659540830563,1.293713122641784
1.409296736386774,0.8025661781491193,1.092862471065613e-06,6.677827942370572e-13,1.336724976596337,1.240786501539823
1.266756950400019,0.7904416891247567,1.146438491419622e-06,5.4929098032769e-13,1.343623751462586,1.228841389982084
1.148429727789424,0.7834659679205076,1.116416877533325e-06,4.642272606249229e-13,1.265151205366966,1.372778332124543
1.018798760284614,0.802145248597655,1.35890999147106e-06,1.596605741708062e-12,1.386451365235578,1.199117404642073
1.199759851790899,0.8335181689714155,1.979083395285108e-06,5.042758099959444e-12,1.494025040966704,1.155675925219076
1.153338360454576,0.7770140327221746,1.2907211610567e-06,1.045073782375839e-12,1.178335088665751,1.628996218654486
1.1249785599076,0.7844065975668639,1.133929893172098e-06,4.479151682515326e-13,1.281656422616547,1.286895790778979
1.166099665721735,0.8111467674206301,1.219715783692961e-06,1.10813617827123e-12,1.38780346251206,1.226840315412738
1.109285400755094,0.7947401170770834,1.301127902108348e-06,9.260169290738295e-13,1.39218279037776,1.223888730567982
1.135462358111508,0.7826231263773756,1.199224271317187e-06,5.105182813013654e-13,1.23217499179875,1.278328411190741
1.098595176624867,0.7972577500697792,1.117337592822057e-06,4.715670414567586e-13,1.388961766578585,1.223064408313014
1.169420077950764,0.7864028477540453,9.120600300831371e-07,3.003010411533982e-13,1.282916726470927,1.312035568837131
0.927499234602163,0.7746096286727694,1.647438459612391e-06,5.905208990398037e-12,1.490377240055519,1.155194813342046
1.104098845572046,0.7885292506132823,1.055784074389214e-06,3.931321797621899e-13,1.3241483615275,1.277874758281408
1.152299286558264,0.7885380399689352,8.786556137685309e-07,2.739013890019302e-13,1.332597282896785,1.244766295481662
1.034560338101526,0.8265811626054319,1.182423374042959e-06,1.985652026151494e-12,1.461329080815855,1.16432160998141
0.9072169833364712,0.7123518702339853,1.74998013054092e-06,9.174622213729059e-12,1.446007488911251,1.193451282534754
1.142976558347685,0.8047802589287442,1.065958583818895e-06,7.263193078804443e-13,1.375652030718803,1.234832037703388
1.173175058490192,0.7976100307205634,1.011243066709217e-06,3.812320581786921e-13,1.323789008862121,1.259578229447774
0.9385352905821018,0.8017093960139287,1.534396163472448e-06,3.043672341392663e-12,1.427310095785302,1.197567699621487
1.01591103000015,0.8148166533448854,1.596441320884017e-06,3.153679893470743e-12,1.427331980492951,1.191396383282446
1.173880919071862,0.8068028646890877,9.618233492186327e-07,3.720176120689001e-13,1.382980882254589,1.187345773136388
1.12644120454008,0.8035468432135159,9.405188091079847e-07,3.228602128067376e-13,1.337821674375337,1.263500868955864
0.8719529229786307,0.6293354588652202,1.730618203126961e-06,9.661896837835455e-12,1.448092134356077,1.182128628969362
1.189829384558998,0.7856279453334993,9.454790528528539e-07,4.62105994690398e-13,1.219912704665643,1.506344600875814
1.090152594771771,0.8048379963063746,9.047465759751049e-07,3.068187770598294e-13,1.327986140781447,1.236584146015831
1.104551282660155,0.7983037395856849,1.059170890108984e-06,4.220425401650437e-13,1.34438707108106,1.248343828243083
1.108019332113899,0.7872394755801405,1.074384714076533e-06,4.265155775611433e-13,1.31382358958232,1.268128315765156
1.112340562252724,0.7843775934143347,1.001667163014099e-06,3.684336523233703e-13,1.262214151264405,1.394338461412407
1.07213224371559,0.7916706051802966,1.078503989458545e-06,4.217242725868893e-13,1.361284065785544,1.222246899741773
1.11096611729754,0.7922228332054041,1.074972877264151e-06,4.084030238105527e-13,1.344339735848043,1.24898676260478
1.074535742169808,0.7901590521896623,1.026477640644913e-06,3.789987447668569e-13,1.35183749420094,1.225972991618573
0.8397615793350234,0.7660097632673515,1.534258822264622e-06,6.857805235013966e-12,1.420000935247165,1.193469331833569
0.8368996198322021,0.7119441716256278,1.806739948571409e-06,1.01424619685103e-11,1.448113252330291,1.183560763723
1.133247467150021,0.7885760388941209,1.051214526437401e-06,3.955304303480207e-13,1.309646445131842,1.24476404040755
1.057436786022009,0.7884489535829197,1.149343472784548e-06,4.58965865903098e-13,1.362772378800684,1.224043506245838
1.070983331465392,0.7813036967763927,1.121177092136978e-06,4.602999917930699e-13,1.231889683736121,1.34129873745009
1.071101368122632,0.7897405012642548,1.176762769861153e-06,4.9905775695638e-13,1.389965422771785,1.211489807540358
1.115995465853463,0.7840211608593194,9.982078799163833e-07,3.457590854353247e-13,1.264401242117093,1.277897535217107
1.123052406752959,0.792843724242806,1.160785591786832e-06,5.990744651714398e-13,1.380030034395297,1.235743806484532
1.115036004917044,0.7841843114861738,1.067701821973249e-06,3.968528396462534e-13,1.336247616151815,1.271261879844922
1.133364239362708,0.7880933973046905,9.622538944467327e-07,3.229762941639447e-13,1.321211022098988,1.272989183259159
1.084916589491228,0.7923329579928987,1.057387016694081e-06,3.977725873156238e-13,1.33713939947638,1.256635741559641
0.90435330221258,0.7576952419082299,1.483643942147614e-06,4.601489971533495e-12,1.40340311009188,1.19673926133985
1.067349418556389,0.7897291231448957,1.099761985690256e-06,4.404723329416448e-13,1.373870982803721,1.217615822963586
1.121199020173621,0.7860074015572581,1.099424765259181e-06,4.187446931919076e-13,1.295941193670411,1.283544898722097
1.169577729388168,0.8059970014771984,1.17151061728404e-06,6.544149363616383e-13,1.403461870296565,1.201788732369487
1.090903946049829,0.7863269118651623,1.117305279594936e-06,5.071777781980586e-13,1.266720331740729,1.334393729104734
1.107069622928066,0.7805050714457289,1.081492700849674e-06,4.16068351991277e-13,1.276206097386268,1.311814820403414
1.105898639492054,0.782861295227324,1.098383956706127e-06,4.216938712847934e-13,1.324640735345557,1.255579557688336
0.9239242966785286,0.7778021390336723,1.623191185220053e-06,5.293245539238823e-12,1.487984485605861,1.158575018486299
1.014691868393105,0.7772542304446748,1.477482570999296e-06,4.276691145271319e-12,1.449585285403384,1.199549935596549
1.177071110614252,0.784855874350157,9.868931807044537e-07,3.736283362414439e-13,1.217696814212415,1.561723562494458
0.7091827208125863,0.5830784302485862,2.498665854111476e-06,2.462959644788644e-11,1.454568767289478,1.169911684819256
1.148792465264253,0.7930438516638567,1.191195783227881e-06,5.243712653354609e-13,1.267204190478644,1.338447867311019
1.14654227684719,0.7814512351530243,9.602037997889555e-07,3.32772278938095e-13,1.235735839691789,1.326939556388512
1.10459183376346,0.7878525091833214,1.116706557502849e-06,4.551202766419022e-13,1.302532562599981,1.299724901774598
1.133535458411946,0.781993371110477,1.056894011368459e-06,3.87145165428406e-13,1.247548580585376,1.344325989620574
0.9274595978094995,0.7307430199458533,2.077756378018712e-06,1.295500057109812e-11,1.499380736053545,1.146876508099132
0.9467864222460074,0.6809994522248641,1.625738990816042e-06,7.691490565677224e-12,1.43395941506736,1.162297306302559
1.239100893452711,0.7938736749800691,9.725541411252597e-07,3.648462929177736e-13,1.323520665325591,1.285321726548403
1.154326728540366,0.7969133173192787,1.055306927132253e-06,4.064426717458056e-13,1.360903108225024,1.23988628163746
0.8765599381860602,0.6324554539046416,2.154587862179487e-06,1.58893876219724e-11,1.470665753896886,1.168300384839115
1.126049971059887,0.7862485381300205,1.25201160620561e-06,5.788508996026648e-13,1.325631281161533,1.251460356099019
1.149986321958695,0.7826172822023075,1.243349793313915e-06,5.413859857117184e-13,1.27280103565048,1.318427132474657
1.111075384102266,0.7909869737238124,1.240332466235248e-06,5.403952614927735e-13,1.294309656486414,1.270807677210094
1.063008520656195,0.8103577790085834,1.692477239114466e-06,3.275536531490517e-12,1.426092788496941,1.181563876171973
1.022419163085934,0.7850422897790146,1.895627540135072e-06,7.57276901313478e-12,1.364935547651876,1.243729188457546
0.9819898794100694,0.8160743063934306,1.740396916933937e-06,1.604752061558696e-12,1.390128846525642,1.227186260399278
1.088128701504205,0.7981441899138368,1.517694100282934e-06,3.617404022572366e-12,1.435048073051637,1.189244508171373
0.6954114066196727,0.6511921990155379,2.52854970172449e-06,2.073409946898486e-11,1.402946097960223,1.201128226666597
1.096706052189705,0.8122284882288014,1.796163081711429e-06,1.101879878371861e-11,1.341901866000349,1.386698760170898
1.108481827385731,0.7818114419272206,1.272635896652156e-06,5.941527780369952e-13,1.26041204219919,1.254452660376127
1.107748751738746,0.7832287271627933,1.267887679133794e-06,5.938358203870762e-13,1.262833718148914,1.219308391348324
1.071432535560102,0.7757434887689213,1.285830725897811e-06,5.829203706801432e-13,1.254677812345272,1.252694151293705
1.081051422358929,0.7802930838483679,1.306766556560945e-06,5.956596132032858e-13,1.298223575039962,1.274253833626457
1.130210527395239,0.8062068009566913,1.378078115928566e-06,1.004721697682947e-12,1.377547257563541,1.212472018528244
0.7073185436232254,0.6993800101257457,3.234417946836932e-06,3.289395642474378e-11,1.337627496475568,1.238683253100948
1.134179174630474,0.7873065981999512,1.213388218555796e-06,5.150378644511165e-13,1.273774564551898,1.313987635186873
1.107812400018354,0.7806189598767983,1.168524317695089e-06,4.694238575504372e-13,1.277032190031042,1.319055203159947
1.122107821119365,0.7790040901582552,1.042674377271067e-06,3.7669574087888e-13,1.30142534207485,1.287482630997628
1.012488564008752,0.7935089556001407,1.425955552661542e-06,3.124849255185622e-12,1.481640044939488,1.155710220262553
1.039878322605927,0.8116431375642591,1.462586328682645e-06,3.241782873327067e-12,1.457216855779241,1.180511967371759
1.005032359503339,0.8108906589460299,1.942787161620986e-06,7.045293609474896e-12,1.411665546876542,1.197326560726392
1.077028243078176,0.8069077154027298,1.716412194599861e-06,4.636590810061609e-12,1.386430390530592,1.227471057287755
1.146150147138552,0.8060729513541102,1.408595655077381e-06,1.104014203189576e-12,1.390027276328915,1.194786910678856
1.103970678024541,0.8121163733089891,1.214375893184767e-06,1.008075932835534e-12,1.390364740337737,1.209391096752506
1.003941939632764,0.7891666213720211,1.588825245326052e-06,4.71949730516667e-12,1.392680050391516,1.222172609986996
1.164821226209859,0.7959937729141162,1.578569235201572e-06,3.933019477656639e-12,1.423526003306077,1.213444072761649
1.136426866299816,0.8105775624766798,1.297209750891252e-06,2.654461642518515e-12,1.235714913143545,1.452581183702471
0.8934130602341501,0.7903138811085225,1.689971886468375e-06,2.909804877565744e-12,1.305302312737791,1.242577088130811
1.116944952215627,0.7883548331145784,1.17024420771152e-06,5.126378352086344e-13,1.3162194632284,1.262072529502312
1.138119029461135,0.7847173059446171,1.136568906559409e-06,4.79160138020599e-13,1.393354700612642,1.22083333584709
0.7083559894756111,0.8200141000100021,2.151475422859813e-06,6.433145514425905e-12,1.469884118694464,1.16789555673676
0.6965466530117652,0.8056068657037181,2.33659066928429e-06,1.044501791358704e-11,1.498212948230302,1.156064944142484
1.160809428863649,0.7893809834592791,9.35550844028758e-07,3.175914637584312e-13,1.280242532465535,1.258132282736704
1.112104031823604,0.7918942196751264,1.16522236082253e-06,4.966081719588166e-13,1.359187093137815,1.241899068299299
0.8901491116643503,0.6995049852815384,1.985023917528496e-06,1.155269075317198e-11,1.422202729071097,1.163257338324753
1.103518064609255,0.7910856232490462,1.213815679347312e-06,8.218404760936968e-13,1.239591125751276,1.463326630648636
0.8651513485910192,0.7950378252789712,2.164550416657886e-06,8.783388445504327e-12,1.451666392771952,1.148079309683094
1.145572545507473,0.7830574481925262,1.088092829964842e-06,4.202274266752338e-13,1.271482049907017,1.278038116901567
1.142564853164547,0.7847283464126876,1.123170211035667e-06,4.424315151586793e-13,1.241946903862369,1.35548240479219
1.099236738018187,0.7850683080443539,1.08043392659921e-06,4.08525009918355e-13,1.310080263114097,1.273257424495901
1.042233216349226,0.8124768130097121,1.829680145433032e-06,1.794939269467287e-12,1.393779599977806,1.21402006607454
1.258037265611622,0.8011014922387116,9.209213357286759e-07,4.227458886471556e-13,1.32579848644518,1.231817660298454
1.570321131792842,0.8058816525222194,9.042312114160605e-07,1.111454528196022e-12,1.384936337841643,1.196671611524647
1.659446887256757,0.7763282904166353,1.033082656891067e-06,1.929439024458776e-12,1.398646382572429,1.197229286221398
1.518326146121604,0.8075761658907163,1.14959715089534e-06,1.429214018075513e-12,1.392910259625474,1.211289717784966
1.174386880852308,0.8055059654079828,1.059228785259877e-06,7.774760775508993e-13,1.343799150174962,1.216425729215351
1.160455484799658,0.784085999740729,9.785667032093817e-07,3.462310199194038e-13,1.354776745449583,1.233590126180939
1.127746385103451,0.7931304083578967,1.040584416275359e-06,3.959567696728693e-13,1.357737216233612,1.234191368383849
1.145395763846675,0.7829307836129313,1.005928497440948e-06,3.578600605586573e-13,1.25037323708351,1.290263666974593
0.937883571432122,0.7244839395411744,1.647810350942589e-06,7.49126226409005e-12,1.368305462868416,1.229066606658535
1.149315915966902,0.7931559520936085,8.144198950425989e-07,2.837983712988309e-13,1.330190697313659,1.255619247717349
1.118522844796165,0.8058451109105774,8.928357580282531e-07,2.988701995551211e-13,1.340835666503151,1.230363547924308
1.113751905025075,0.7925650881280072,9.585597358301047e-07,3.445419037947358e-13,1.378338402872753,1.241707522817443
1.166418628880191,0.7893146904720699,8.252407215042776e-07,2.537495021184201e-13,1.314630954610058,1.266476585414373
1.12810942881936,0.7816844433640846,8.32667459195627e-07,2.469732455810439e-13,1.317620557070164,1.271702162295997
0.8865724537430414,0.8169105486605919,1.36866848218558e-06,2.789710511166699e-12,1.467724787439921,1.179184458419319
1.119520277787271,0.8139806591988842,1.243308674201523e-06,1.402344341610479e-12,1.410911418765332,1.218338624511242
1.097122961370484,0.7707747235453126,8.86706326620313e-07,2.771193642206764e-13,1.296635048481953,1.276271016644244
1.024581237216477,0.8145641519018533,1.480072520564575e-06,2.461250937024473e-12,1.382818203162162,1.235146341014422
1.14728303746716,0.7836746831357618,1.303306252801037e-06,6.218470804191717e-13,1.343938351856308,1.269121534237803
1.123151763126444,0.7853822171716306,1.175390517715692e-06,4.821218875196911e-13,1.322913969176375,1.26126088509142
0.8984038755212156,0.7503354011602669,1.731190482605079e-06,6.895925146490329e-12,1.370540872281694,1.223481492512453
1.096715996403628,0.7794265419897428,7.82868618472126e-07,2.371838569739722e-13,1.287032620361032,1.303957948696456
0.6747274501666424,0.6085835197726855,2.195450380214097e-06,1.782625142281825e-11,1.417908769405727,1.193080005379005
1.151077679428946,0.78974775557493,9.685975856568175e-07,3.355666838131658e-13,1.306158712587592,1.273927799073552
1.141893544883791,0.7922872674987016,9.694508320012768e-07,3.648492622295463e-13,1.320636648567417,1.320321056067559
1.196410779237633,0.7883601967248054,8.611388684233969e-07,2.661556816200895e-13,1.27761827357659,1.293002479493161
1.113319886627118,0.7924834860974671,9.60816364676347e-07,3.415043200949636e-13,1.297729431313193,1.252447422147486
1.145423127678377,0.7906013923365861,9.919027200224837e-07,3.520274362826091e-13,1.288314332309377,1.295810062491054
1.106186641994836,0.77496664483082,8.922024981875038e-07,2.844255755204619e-13,1.249421165462697,1.266511175140796
1.112635851051757,0.7862612870443106,9.912366727723416e-07,3.619587582258855e-13,1.315083040852143,1.234068381353431
1.193718633567958,0.7896911130332533,9.651370852515205e-07,3.537572511115481e-13,1.336482827654992,1.257661438092838
1.143771130885596,0.8134850572724611,1.053321028638064e-06,7.408332799164291e-13,1.384196734987902,1.212666219042675
1.103688820351012,0.7881542357891416,8.942431036754174e-07,2.979270890235633e-13,1.349194917770405,1.253092094975416
1.145136694976334,0.7861701895427105,9.768818512652988e-07,3.548176876367944e-13,1.345278341238439,1.218459544507755
1.113521132192014,0.7881897596980185,9.684714739340356e-07,3.376058095403308e-13,1.342566825086991,1.248897038530672
1.100689851742256,0.7861334791159728,9.51765197478678e-07,3.195915494545648e-13,1.324059144962513,1.254436331367051
1.126050830152337,0.8006921750555006,9.809996067768097e-07,3.862047050142378e-13,1.35299089521428,1.232575392450914
1.108698928796805,0.7848735768108677,9.54618883924146e-07,3.213455820436325e-13,1.346610601622736,1.256870558768776
1.133087645908331,0.7953687855972428,9.472448090368756e-07,3.508599814938861e-13,1.325421404099135,1.238549304466533
1.140309487626127,0.7862761983014351,9.803212345292144e-07,3.354756995480904e-13,1.289022956514851,1.274525505021262
1.120011669026553,0.788608361945341,9.085438897877675e-07,2.963158095993086e-13,1.313662157847862,1.221298205128773
1.08423302152106,0.7922232939278091,1.148114325755983e-06,4.765685748672606e-13,1.356201173025646,1.255334486216552
1.10748104654519,0.789155934625689,9.872817903685793e-07,3.455745911158167e-13,1.270378348736094,1.348529045685219
0.997039201625333,0.8241867057509853,1.08110525341143e-06,1.402414096675516e-12,1.41266812014345,1.193519964931293
1.123744708288528,0.7917953978190226,8.589080793968968e-07,3.06001466399556e-13,1.386592257429943,1.234674311281092
0.7742374433217174,0.5934288753984895,2.155055451828367e-06,1.830421141244117e-11,1.394109860257717,1.206549157407019
1.117111875903598,0.7834017591857293,9.340529477905565e-07,3.146662801630211e-13,1.279526540351914,1.250474824495806
1.07410057545625,0.7905597677009036,1.161294838317602e-06,5.017993097487453e-13,1.332948334960727,1.275261542228979
1.042745333888079,0.7845773315654804,9.851405261759463e-07,3.755324914992664e-13,1.34513658170938,1.19494038239552
1.094107549301494,0.7905998203048791,1.001108439601882e-06,3.718736956565193e-13,1.330139300224917,1.241859303837691
1.093536130720681,0.7938289794652393,9.94408795043187e-07,3.658806688749255e-13,1.383139437343204,1.223637718399301
1.114551200570265,0.7875539309007363,9.252190773944764e-07,3.092368064716189e-13,1.25357687092566,1.275961056303816
1.0189916329869,0.8277964540997207,1.428512963050101e-06,1.388132285997792e-12,1.471602195719458,1.168928135708641
1.003207115498709,0.825475788103102,1.266345087016719e-06,1.39555323979823e-12,1.494909006021035,1.165491838449844
0.9966381194841647,0.8473658390304798,3.357168233072812e-06,9.533189384759058e-12,1.408089030456833,1.184301404157019
0.9583025635700667,0.8454690576914521,3.578157797320896e-06,6.973176376723425e-12,1.460629131647555,1.163259977386012
1.063025939508481,0.8129457816382133,1.699387636081979e-06,1.303449977536017e-12,1.422837637274016,1.206215065098186
0.8839227480198392,0.8139397168507249,2.095809820402427e-06,4.391619114135968e-12,1.423045421588766,1.181333195657407
1.150941408938228,0.8236188231459172,2.98698919885662e-06,1.537516352580797e-11,1.455201323633755,1.186349366588154
1.292467930227653,0.8313992011324314,2.016627533600242e-06,3.609836607763739e-12,1.373314168236281,1.246427249057411
0.882438874410732,0.8034547809555989,2.483160494632538e-06,2.668994629834668e-12,1.457382174598452,1.157948692595069
1.101710864657501,0.7868812981594284,1.169808076042306e-06,4.82103192620041e-13,1.298642454311828,1.253621325154007
1.102566401919146,0.786414218561623,1.155550584313737e-06,4.732606049355222e-13,1.29543641005778,1.236964615328536
1.077669875649627,0.7869831688298826,1.205240388901208e-06,5.045549369403683e-13,1.328702328015551,1.261605656498667
1.087471625026145,0.7863930731773783,1.117101301984446e-06,4.830232024694829e-13,1.16651831655197,1.536225983103722
1.092117605210069,0.7923999061335298,1.09584974742692e-06,4.197556228562378e-13,1.284817984604158,1.240615441645021
1.03654734428314,0.7887290915658257,1.223408163990811e-06,5.126506638541512e-13,1.281256438924994,1.283848723281181
1.062767554935918,0.7917099508264023,1.237029442851505e-06,5.279492173898977e-13,1.303323059146447,1.257110106395405
1.097054425537423,0.7902562419227022,1.251380666014433e-06,5.454430575292924e-13,1.286524411116453,1.258900986960751
1.103289329462172,0.7949087187202036,1.149115140236189e-06,4.646751431842675e-13,1.286922802283541,1.281998851210843
1.097184392657386,0.7845612326541355,1.15084496713905e-06,4.672021877609777e-13,1.319679576115912,1.247571249217751
1.080174242972589,0.7834198270400654,1.142468384958207e-06,4.605319639561007e-13,1.278113837874343,1.294409365095103
1.034649088332543,0.7896648113152074,1.112905608097613e-06,4.282721610134334e-13,1.285641947565978,1.314914123912736
1.11219811730932,0.791889315280833,9.139716137792057e-07,2.944883954873844e-13,1.229375952866073,1.339610390066481
1.119775279017007,0.7912815672586171,9.388095797722905e-07,3.07114290403995e-13,1.267888486932728,1.287442841951996
1.117731014947426,0.7933302752453796,9.83124063713043e-07,3.400961787326962e-13,1.274034814189406,1.265063594707695
1.106671141855392,0.8045604613397187,1.017913848325251e-06,3.758586456280139e-13,1.345632264994251,1.223284343718553
1.133066233326326,0.7974744534833762,7.922478810831207e-07,2.242436654965934e-13,1.257398266464025,1.326684898410463
1.264408763196108,0.7993964712490994,5.487181151915023e-07,1.154511505840716e-13,1.256721822556734,1.381813711987984
1.068038303551105,0.8131725133471467,8.229118809773156e-07,5.46686189011234e-13,1.39018620380296,1.226061805528332
1.152369665186151,0.7971621890638875,7.731745193133268e-07,2.574645384114613e-13,1.358585490180661,1.253431378918171
1.155337858066304,0.805762808827299,9.426755610555969e-07,4.329200823021154e-13,1.389087739657301,1.225357042113526
1.191416072708379,0.7901068817365063,6.552356690077549e-07,1.601027010304544e-13,1.308522615461767,1.250589265130786
0.8943984708342364,0.8100513163041495,9.455254743358744e-07,1.740266472184009e-12,1.492665607254474,1.157237570870964
1.127754714882764,0.8051378419065682,7.908820950308688e-07,3.343301465056931e-13,1.361554482477991,1.239678803817524
1.191824654029912,0.7962782944328762,6.269628848479181e-07,1.498206143568877e-13,1.300691300231066,1.264579810971995
1.261896685538871,0.7794419810222493,4.172883427656478e-07,6.879412742756229e-14,1.27570971013394,1.308056332793255
1.386571285664153,0.8002780255970121,3.195563645869478e-07,4.385556606701835e-14,1.301628901785379,1.317845518771207
1.394975580933478,0.8011465457199901,3.260791987812871e-07,4.517745664223667e-14,1.317454557828477,1.303058719729714
1.47945654087059,0.7997105993698647,3.167097624686141e-07,4.887941037791718e-14,1.304656033192974,1.322152574062699
0.8449658329258354,0.8030887038884467,7.513056509237002e-07,1.079958035882137e-12,1.414681296813539,1.21497680093456
0.819735801814928,0.7942750534952575,8.03756810931584e-07,1.146927792545154e-12,1.407719822053893,1.221903908400467
1.062003299689731,0.8261237102222754,5.173080917624956e-07,3.755594463768083e-13,1.519988257145665,1.155113955634808
1.389270824433718,0.7922320372455081,3.511324294284367e-07,5.136435041640274e-14,1.356397388987895,1.246949060866516
1.301360114130387,0.777803518742669,3.51995928295782e-07,4.939958181842761e-14,1.362140729760902,1.248664709591603
