sample_entropy,shannon_entropy,rms,mean_rr,sdnn,rmssd,mean_hr
0.3856638109447231,0.8038995577671899,0.0003458006410846377,0.9424603174603174,0.1472303777743634,0.1478061168743834,63.66315789473684
0.5915997959826118,0.9245364526737381,0.0001771481327705638,1.009533898305085,0.07831105753506873,0.1206824389776168,59.43336831059811
0.5350943227750944,0.9068698835929719,0.0001760605249621917,1.01885775862069,0.0878034407471893,0.08887161176209749,58.88947646747752
0.7202237635295166,0.9129561926229388,0.0001869947860422538,1.029094827586207,0.07629584302503845,0.09347547525251856,58.30366492146597
0.7270516424228827,0.8765833191935222,0.0001855047335334279,1.040021929824561,0.04370862155262006,0.07012624139466521,57.69109119662625
0.5963807197314045,0.8816297649172349,0.0001696131017227878,1.03344298245614,0.04174594258947691,0.06733528182588552,58.05835543766578
0.2625019518785613,0.764606688263474,0.000629560116897804,0.9880208333333333,0.1282255279743685,0.1423359894696527,60.72746441750132
0.3390837400464036,0.6636038642376135,0.0005584955644303072,0.9848958333333333,0.08957576276150572,0.1094695414646219,60.92014806980434
0.6123098988065057,0.8763070983539851,0.0001578049052992765,1.047697368421053,0.04225405453508266,0.06455872707133738,57.26844583987441
0.5095081458214332,0.7775328724682474,0.0002306434681901422,1.045504385964912,0.08955722579049458,0.1323850790375778,57.38856843209229
0.522882298425678,0.7563938242208509,0.0005511207986682308,0.9182692307692307,0.1774292508389032,0.2514302350274077,65.34031413612566
0.5892839982690372,0.7402464937039491,0.0003146154535577557,0.9723360655737705,0.1668147954899575,0.1852732357222705,61.70706006322445
0.5507154688336555,0.7460745701520184,0.0002711046058873491,0.9805327868852459,0.1781446759360616,0.2001382985379527,61.19122257053291
0.4648980586848002,0.8211523905383686,0.0001828212050080634,1.077840909090909,0.09933599278614937,0.08257029132357024,55.66684238270954
0.4868187820837191,0.8272015403827875,0.0001392906985154601,1.096064814814815,0.02874940358419958,0.04760632340668503,54.74128827877507
0.4024631665305425,0.848983927159123,0.0002218836361834599,1.059151785714286,0.1286680796816136,0.1674402030305419,56.64910432033719
0.5783170661918883,0.8689621285378033,0.0001417787553813003,1.073863636363636,0.04101155098322406,0.04811252243246882,55.87301587301587
0.5065560027610826,0.8648519844469637,0.0001371449944220181,1.080681818181818,0.0548405841455166,0.05737052653423023,55.5205047318612
0.4552187075943206,0.8651072633633875,0.0001482876771854326,1.078409090909091,0.1070777793309437,0.105374936843705,55.63751317175975
0.4002027141694741,0.87274480310283,0.0001832163982064863,1.042763157894737,0.146415455374369,0.1662534404853454,57.53943217665615
0.3819965712827738,0.7805770180354324,0.0003110921315289559,0.9637096774193549,0.1877680835839765,0.2116832786282839,62.25941422594142
0.4791181569708398,0.8503381481377861,0.0001381645313773968,1.106721698113208,0.03562218742215381,0.05200314339611523,54.2141715503463
0.4045672973742193,0.857751161230532,0.0002038374283332534,1.037280701754386,0.1783627603416715,0.148408126793024,57.84355179704017
0.6657151854823594,0.9162213478814825,0.0001584264684941226,1.044407894736842,0.1127414818774294,0.1266630442777777,57.4488188976378
0.7747080322321669,0.8767882740189497,0.0001325041235057888,1.098958333333333,0.04199092577238827,0.0518666877859652,54.59715639810427
0.8294912202970245,0.8661789341560603,0.0001323138663792904,1.088068181818182,0.06195527078879082,0.06601789354802619,55.14360313315927
0.8440523393198159,0.8498587773747824,0.0001322771401096123,1.112617924528302,0.03115529437175214,0.05515766300761426,53.9268680445151
0.896489753891119,0.847640490986082,0.0001311207239971035,1.103587962962963,0.06472432919926575,0.0800758779309668,54.36811746198217
0.8626190937429008,0.85062603309874,0.0001306973141126995,1.101851851851852,0.03248997418430138,0.0554715527128758,54.45378151260504
0.7316943823037744,0.863771891656187,0.0001298653033043024,1.096643518518519,0.05286514556300592,0.06800626878707303,54.71240105540897
0.7200743162352903,0.8870812132508631,0.0001299728558868093,1.044956140350877,0.05333502853954084,0.0677226404298128,57.4186778593914
0.6393133825667402,0.8629453515061504,0.000127951617668642,1.097222222222222,0.05055631867555915,0.06205620740392125,54.68354430379746
0.6716234778021761,0.8938012870480428,0.0001285803820024054,1.115566037735849,0.07905342340610551,0.09324785391426113,53.78435517970402
0.66332828561597,0.8727165363827059,0.0001293193961193046,1.094907407407407,0.04578713065938075,0.05257238944612915,54.79915433403805
0.6061820967257211,0.8467892654593172,0.0001296536491438443,1.098958333333333,0.03224683267535887,0.05463482975759611,54.59715639810427
0.6847867653359484,0.8678640094250989,0.0001299870726423421,1.078409090909091,0.03519059674364097,0.05031728036871333,55.63751317175975
0.7422154655648502,0.8522193421811733,0.0001294329608727684,1.073295454545454,0.05370445408371406,0.06519091442888399,55.90259396506088
0.6442297897298399,0.8436434417333134,0.0001286662532472423,1.078409090909091,0.03364288941610787,0.05462546084219539,55.63751317175975
0.6982002656443868,0.8801538350378874,0.0001266722071848817,1.070454545454546,0.04428174492817889,0.05846339666834283,56.05095541401273
0.4389265557338105,0.7991564777880991,0.0004014937734700912,0.9571572580645161,0.163850801490055,0.2137154847025347,62.68562401263823
0.8921537265734905,0.8944717555719984,0.0002246378766961678,0.9153846153846154,0.129918044261958,0.1878658540064226,65.54621848739497
0.5783286558196618,0.9248354564796759,0.0001389298719491099,1.022090517241379,0.09950182698760054,0.08642827367955506,58.70321560358461
0.5111137836320202,0.9169659065951695,0.0001537984018051567,1.027478448275862,0.1052689216802855,0.09724832565193739,58.395385422129
0.6210679868973579,0.9209605355376245,0.0001597433949066654,1.032866379310345,0.102570415421062,0.1024808764787833,58.0907668231612
0.6247300150294147,0.9160066413112683,0.000136880286801443,1.039473684210526,0.06291700681116129,0.07074519639169857,57.72151898734177
0.4372533146521979,0.8728787331937965,0.0001359236405690095,1.06640625,0.05697159306439169,0.06514298085400648,56.26373626373626
0.4354133814002339,0.8595670838959616,0.0001365997937117371,1.080113636363636,0.02780029505164788,0.04677844994898431,55.54971067859022
0.4323244724958979,0.8900943951536855,0.0001714133346934069,1.063616071428571,0.09863823879420937,0.1137712267906721,56.41133263378804
0.5782724014734871,0.932237292419001,0.0001479708750816965,1.081818181818182,0.05445067523050427,0.05938413672391344,55.46218487394958
0.4863352591531201,0.8764308632471332,0.0001489134607512334,1.065848214285714,0.06460694481431385,0.07596444293818715,56.29319371727749
0.3876570000340635,0.8759443448086909,0.0001511303173032567,1.076704545454545,0.02652867620438352,0.04231270002414562,55.72559366754618
0.4261710020366502,0.8805552208266227,0.0001507668930224097,1.081818181818182,0.0282609775351043,0.04658474953124562,55.46218487394958
0.4719420677391503,0.8716389139596005,0.00014991586493748,1.065290178571429,0.06395537256810607,0.0747866283016374,56.32268203247774
0.6091709889186171,0.9409318952342483,0.0001542904245862895,1.057477678571429,0.04716309744580394,0.06178569082651007,56.73878627968337
0.6413216296631924,0.9597684015970753,0.0001584871695261347,1.03125,0.08857863494638828,0.09654105571515412,58.18181818181818
0.4703192330834621,0.9034545819109475,0.0001468761676223774,1.065290178571429,0.06894169341581001,0.0827870351070636,56.32268203247774
0.5241265303670061,0.9062757558742993,0.0001484637877613484,1.074431818181818,0.0431743414579838,0.04188311833963479,55.84346906398731
0.6422903823984978,0.942470884910439,0.0001569725211190559,1.059151785714286,0.0632429534219071,0.06348653221532322,56.64910432033719
0.4168408178875626,0.863701984058128,0.0002506684334805201,1.08912037037037,0.08211069398397199,0.1384960705457154,55.09032943676939
0.3880702789443439,0.7857273895140716,0.0002535801049374112,1.040021929824561,0.1116430547244458,0.1409346788599497,57.69109119662625
0.4126402174023121,0.9127394889128896,0.0001547007380667011,1.047697368421053,0.07723844853226458,0.0843501947664785,57.26844583987441
0.426916151490295,0.9085048649881214,0.0001559659410578369,1.043859649122807,0.06593095167939386,0.07074519639169857,57.47899159663866
0.4575234413469647,0.9216884428743035,0.0001563019432001335,1.028556034482759,0.07137534411873457,0.08741380466273067,58.33420639078051
0.5183406113882796,0.9513875496083254,0.0001606434766295075,1.031788793103448,0.1113947411944782,0.1085692438112856,58.1514360313316
0.6257068228701651,0.9596297198356528,0.0001619619377564812,1.036732456140351,0.1074785153933583,0.09802386166315395,57.87414066631413
0.6165719639994569,0.9502742409788282,0.0001525346679827534,1.023168103448276,0.05240715081692496,0.05629871185151886,58.64139020537125
0.6268802584424567,0.9561793039455283,0.0001421719280064515,1.047149122807018,0.07027388243054535,0.06509672576525753,57.29842931937173
0.5969932653460922,0.9574653771989136,0.0001378854251200801,1.041666666666667,0.06553312630475411,0.05949822738956179,57.59999999999999
0.6239726700712205,0.9463355276729092,0.0001375082459784341,1.030701754385965,0.05052195628731699,0.05524271728019903,58.21276595744681
0.6187051416795747,0.9354898813619298,0.0001381893610496268,1.000529661016949,0.04006562637516407,0.05685735326841775,59.96823716251985
0.5845563843603981,0.9458057761948045,0.0001373071905613097,1.021551724137931,0.05164550416518,0.06544592317057743,58.73417721518987
0.5534608634426196,0.9424738283443326,0.0001361557643583717,1.024245689655172,0.07248920091063432,0.08573166138106676,58.57969489742241
0.6674515482110298,0.9574786605160762,0.0001373811681415463,0.984375,0.06236965574967793,0.0576795740510613,60.95238095238095
0.6437330812595236,0.9575579631865963,0.0001373791243753327,0.9754098360655737,0.07903967711845436,0.06555055301063448,61.51260504201681
0.6169311147594425,0.9576244513781966,0.0001371563329489181,1.0,0.07209229313049738,0.06915047934109675,60.0
0.5877262242030606,0.9456112627857726,0.0001365756049131881,0.9984375,0.0680898705296904,0.07846852440331664,60.09389671361502
0.5737931254087613,0.9434103766464972,0.0001370056295075775,1.025862068965517,0.04962749542960972,0.05553270728991491,58.48739495798318
0.4903782576545196,0.9473774181800126,0.0001357981745237267,1.014300847457627,0.07661615723937917,0.0739737619490624,59.15404699738903
0.6279838733538591,0.9543466998927655,0.0001351468482153493,0.9748975409836066,0.05681627308611381,0.05691161824853223,61.54492905937992
0.6327553297358343,0.948282433993034,0.0001353274306100705,1.002118644067797,0.05141805550640507,0.0547451973960368,59.87315010570824
0.5039653904030753,0.9400890245701936,0.0001355500928586737,1.023706896551724,0.04689667057540721,0.06167214887912064,58.61052631578947
0.409059563559192,0.8989382306238693,0.0001360133357912437,1.009533898305085,0.05249793090408419,0.06370075007678346,59.43336831059811
0.6226777139914351,0.9444646459731194,0.0001362002923730621,0.9927083333333333,0.04469466240192694,0.0619680754330918,60.44071353620147
0.6648419151789091,0.9379847294871841,0.0001372830052672405,0.9424603174603174,0.03865866620714031,0.04988646383733315,63.66315789473684
0.6368067303328627,0.9517364311250235,0.0001348706718231589,0.9916666666666667,0.06650370708130153,0.07081827274254356,60.50420168067227
0.6142462919998045,0.9576148601395846,0.0001357274439165068,0.9921875,0.05835890436557218,0.06368058700276677,60.47244094488189
0.5245798195745914,0.9379133301076714,0.0001347575587221223,0.9947916666666666,0.07888519039647993,0.09069893973741658,60.31413612565445
0.5891716150403491,0.9529386650090557,0.0001344541074227777,1.007944915254237,0.06894550887827534,0.07271112244757473,59.52706253284288
0.5784876612283157,0.9588220245306561,0.0001417181652379255,0.9895833333333334,0.07626252174051304,0.05015864661759201,60.63157894736842
0.6139974220819857,0.9577762229022283,0.0001354294545644503,0.9723360655737705,0.0767759258989108,0.06417038679692266,61.70706006322445
0.6377322577564244,0.9512727597536822,0.0001350564487340086,0.9890625,0.05643055512825771,0.05681216262415908,60.66350710900474
0.5993740855947374,0.9392719263759709,0.0001342398685699479,1.004766949152542,0.04220703773969605,0.05190342490858748,59.71534001054296
0.6463210191335144,0.9429406628186273,0.0001334833880695705,0.9869791666666666,0.05656499380628938,0.06483968169287924,60.79155672823219
0.6970633983569774,0.9554836416234905,0.000135295057424381,0.9439484126984127,0.0568254106810305,0.05051399119503044,63.56279558591697
0.6584094731571678,0.9366774159422336,0.0001333839710584288,1.002118644067797,0.03766928895486132,0.05670909394627018,59.87315010570824
0.6663252172541152,0.9494863452814927,0.0001346200940261685,0.9743852459016393,0.06185843790214583,0.07091753573693886,61.57728706624606
0.6512809746167194,0.9417812146243699,0.0001338666448751975,0.9916666666666667,0.04559597630883185,0.06183437932171467,60.50420168067227
0.6579296433895127,0.9357854464916635,0.0001338151161637015,0.9833333333333333,0.03718035061994739,0.05304549134980628,61.01694915254237
0.6809994331665172,0.9469598342387399,0.0001353503488994634,0.9713114754098361,0.04393807713604829,0.05229125165837972,61.77215189873417
0.6997390072821278,0.9448796428488113,0.0001344033939969424,0.9581653225806451,0.04198016869434446,0.06198558796005809,62.61967385586534
0.6697787861298412,0.9317612331482555,0.0001337553223301301,0.9880208333333333,0.03567233088784951,0.05146168559953864,60.72746441750132
0.73537538502764,0.9440469063054179,0.0001345568034043236,0.9661885245901639,0.03808251545091352,0.05260158822063583,62.09968186638388
0.7363355561540794,0.9518158539077218,0.0001357823733400807,0.9807291666666667,0.04495790372825326,0.05320127873765849,61.1789697291556
0.789812938059754,0.9409373873615059,0.0001375461413334456,0.9621975806451613,0.0381236352769167,0.05013429710190061,62.35725510738607
0.7653743122625208,0.9446836863943282,0.0001354136635901556,0.9769467213114754,0.06881555168117616,0.08158983418089943,61.41583639223912
0.7802560313535675,0.9437901403845259,0.0001408306511189287,0.9672131147540983,0.03937680092331073,0.05575593204613598,62.03389830508475
0.6050581644750884,0.9344869223028521,0.0001409731430958988,0.996292372881356,0.04884956483122385,0.04889677286438977,60.22328548644338
0.5663391419438705,0.9114996280282734,0.000139963719339893,0.9901041666666667,0.055460802443157,0.06183437932171467,60.59968437664387
0.7872469951722089,0.9372985362221884,0.0001403949868034937,0.9697745901639344,0.03877907964708108,0.04756437523679531,61.87004754358162
0.8066710723727891,0.9244978109359485,0.0001441724349301243,0.9901041666666667,0.03630548316217385,0.05666630317264607,60.59968437664387
0.7937193947808604,0.95053192673877,0.0001386864069282218,0.9885416666666667,0.05530651646857618,0.05622645458247616,60.69546891464699
0.7752327477081062,0.9616602048733484,0.0001386500692811993,0.9795081967213115,0.09766177171301592,0.0727304168946299,61.25523012552301
0.711287176832376,0.9513521969568043,0.0001377806282963452,0.9429563492063492,0.05179673604050244,0.0587321953116775,63.62966859547607
0.665691173476259,0.9389581243672803,0.0001355207742042433,0.9957627118644068,0.03836296390303352,0.06168651629897289,60.25531914893617
0.644999448850505,0.9450282201940289,0.0001370701335251816,1.007944915254237,0.04935804134415993,0.05917900955924991,59.52706253284288
0.2849183576225864,0.7618401692914331,0.0003262538012922461,0.9958333333333333,0.1063520751508351,0.1200696081657833,60.2510460251046
0.4066784302250526,0.7912004769749237,0.0003849141926280203,0.9072115384615385,0.1358256038991037,0.1561523132133335,66.13672496025437
0.4216687182504522,0.7907570320446712,0.0002911055146398243,0.9606854838709677,0.1163779813682404,0.1430936548466669,62.45540398740818
0.649159239250312,0.8913152225475219,0.0001222764436072902,0.9978813559322034,0.03853807153301111,0.05302665847119437,60.12738853503185
0.7519056242922173,0.9048636459578752,0.0001264236396045942,0.9885416666666667,0.03825909931709782,0.05081434303055702,60.69546891464699
0.7022235764656396,0.8808575644701574,0.0001223229793687584,1.002118644067797,0.03348195048576082,0.05428190107653525,59.87315010570824
0.6847199291069238,0.9053275930788467,0.0001211382005831345,0.9880208333333333,0.05262994417919856,0.05753591361864521,60.72746441750132
0.7521889403516074,0.9160242024104355,0.0001225877282456401,0.9591733870967742,0.05429763385041178,0.05587305393244318,62.55386232264845
0.7499556506407312,0.8799007890834238,0.0001628000771647737,0.9627016129032258,0.08655864409962928,0.09519043682164234,62.32460732984293
0.5668928828345393,0.7399784464963056,0.0003095863031244779,0.9048295454545454,0.1331873407105606,0.1624260186622252,66.31083202511775
0.6446715963595796,0.8418194677622844,0.000243923785495928,0.9454365079365079,0.122110483477493,0.1578047646619075,63.46274921301154
0.7504551203577282,0.9037201345668641,0.0001190498986252892,0.9774590163934426,0.03884669797157556,0.04652648215443186,61.38364779874214
0.2773999965887658,0.7890674503790438,0.0005649802544343921,0.92431640625,0.1050780796206919,0.1436917583877775,64.91283676703645
0.2479222690525968,0.7440151333561118,0.00074077078348546,0.9125,0.1320374728278652,0.1939404935516627,65.75342465753425
1.165508912753182,0.9087036188697458,0.0001228734804187795,0.9697745901639344,0.05060064846256453,0.05762215285808055,61.87004754358162
1.111847952948909,0.8819993897519816,0.000126901604399943,0.9621975806451613,0.05148289210631619,0.06574564437358843,62.35725510738607
1.091583898357218,0.8867808727253592,0.0001281624673339863,0.9723360655737705,0.04275746232554372,0.05705443307345481,61.70706006322445
1.08964948620038,0.8891966183345388,0.0001281873278595505,0.9875,0.03526314766627241,0.04949426434840536,60.75949367088607
0.9572825166707619,0.8832324952199624,0.0001285661027643962,0.9895833333333334,0.05638486917801816,0.06089028755593184,60.63157894736842
1.160500208109074,0.8769638218883796,0.0001308182591642097,0.9379960317460317,0.03499046049315158,0.04909077544581026,63.96615547329456
1.096231185970328,0.9050426015063778,0.0001334280553261404,0.9864583333333333,0.05209374895854162,0.06522146918287629,60.82365364308342
1.113970112447031,0.8849530759068995,0.0001342985915436049,0.9748975409836066,0.04376451461920808,0.06144950501563594,61.54492905937992
1.12316651339131,0.8904172058795319,0.0001333338419645661,0.9890625,0.03689838594595523,0.05335661126891113,60.66350710900474
1.156399544200982,0.8876014347356966,0.0001324155233001332,0.9713114754098361,0.04169465153560616,0.05762215285808055,61.77215189873417
1.166144226275257,0.9019634451055161,0.0001339743061934166,0.9499007936507936,0.04709428948975366,0.05159380159382739,63.1644908616188
1.106872440040474,0.9054126638855428,0.0001326794739416154,0.9713114754098361,0.06359065839829058,0.06882098607982888,61.77215189873417
1.144988605747276,0.8813038551676103,0.0001339910752424064,0.9748975409836066,0.03615221058274047,0.05762215285808055,61.54492905937992
1.109287559879953,0.9040411540313236,0.000138109000875129,0.9779713114754098,0.04538945990437845,0.0535218024111047,61.35149292823468
1.157505672861501,0.8907322105899635,0.000140612766047833,0.9576612903225806,0.03892486809739481,0.05061102063618225,62.65263157894737
1.074847804264744,0.907988089551287,0.0001456491755629409,0.9864583333333333,0.08973461064284072,0.06795573553075136,60.82365364308342
1.226457193028358,0.9014125508606757,0.0001343930934178412,0.9454365079365079,0.06540099096765678,0.06186675164963342,63.46274921301154
1.005528294217149,0.9294293959400465,0.000169951895069191,0.9370039682539683,0.0935831954379628,0.06325153000827013,64.03388035997882
1.107594324686437,0.8813334845194555,0.0001397621304314557,0.9409722222222222,0.03862045964250343,0.04909077544581026,63.76383763837639
1.06693291727837,0.8865885053230738,0.0001383789717314945,0.9789959016393442,0.05448662213241118,0.05915529526875285,61.28728414442701
1.040349598760974,0.8852668338177447,0.0001377050073974871,0.9864583333333333,0.03842888905353482,0.04796576948588317,60.82365364308342
1.054329356998681,0.8830578286203846,0.0001398352592135586,0.9606854838709677,0.05111394086325491,0.06610988895795233,62.45540398740818
1.060093935122984,0.8830956376916066,0.0001410915854208511,0.9885416666666667,0.03783129124444765,0.05335661126891113,60.69546891464699
1.070134577598168,0.8783021779239129,0.0001496490788185996,0.9419642857142857,0.05701560732341672,0.06148367210474559,63.69668246445498
0.9505561013190932,0.851490845638513,0.0001498321430873754,1.001059322033898,0.03858172426159812,0.05626197190606298,59.93650793650794
0.9637388613593775,0.8600949392013311,0.000146732537292577,1.007415254237288,0.03743770560820401,0.05381461633268868,59.55835962145111
0.9943926129538196,0.8832248165919003,0.0001446333654063753,0.9973958333333334,0.0520703108719888,0.06672677816086144,60.15665796344647
1.001008748014673,0.8973250523369752,0.0001385273401983319,1.016702586206897,0.04650193398130006,0.05537823492590543,59.01430842607313
0.9757285622180771,0.8772400879052383,0.0001498558475520522,1.007944915254237,0.04289927273584023,0.05535689456483328,59.52706253284288
0.9883359906754797,0.8859596965941378,0.0001508311261495357,0.9707991803278688,0.08039605879531621,0.08158983418089943,61.8047493403694
1.026914417576256,0.8362861223790437,0.000155771525827965,0.9360119047619048,0.03360592199594113,0.04611275407855919,64.10174880763115
0.956994835989481,0.8609704380526203,0.0001502356721095773,0.9895833333333334,0.05892556509887896,0.0666026352102464,60.63157894736842
0.9666310883254731,0.874525274984173,0.0001421633680682531,0.9901041666666667,0.05054767328280853,0.06368058700276677,60.59968437664387
0.9189854834938271,0.8481913122961687,0.0001606108386698743,0.98125,0.07889206761983954,0.07804551040844858,61.14649681528662
0.8211121634126488,0.8737354663229455,0.0001591098253130161,1.005296610169492,0.07614602489397011,0.0482031664791919,59.68387776606954
0.9349831233262786,0.8734360694227653,0.0001437051455027872,0.952116935483871,0.03625179967006353,0.05045261329727718,63.01746956061408
0.8517565193078401,0.849931083876336,0.0001533201954327645,0.9754098360655737,0.05127559402479972,0.0640434422872475,61.51260504201681
0.8205993883505445,0.8896519919267531,0.0001461161695814815,1.002118644067797,0.07090339207915894,0.08762306616489708,59.87315010570824
0.7061769619329646,0.8790739635913272,0.0001459419746055569,0.9947916666666666,0.06042564588447157,0.07523796992638801,60.31413612565445
0.8121805770601959,0.8898015989309536,0.0001382836910328337,0.975922131147541,0.04397390109400602,0.0579039254570304,61.48031496062992
0.6975813445052856,0.8977461994890549,0.0001338514793518904,0.9953125,0.07076244921390157,0.07719252839930796,60.28257456828885
0.7240340532368501,0.8995458826634553,0.0001401113743971824,1.010593220338983,0.0483473462171357,0.05535689456483328,59.37106918238993
0.7229319297275384,0.8967872671582308,0.0001336987831551584,1.003707627118644,0.05116646049039543,0.06044576687211951,59.77836411609499
0.7454132347019107,0.8859693839793112,0.000141031838705928,0.9764344262295082,0.08556401473816788,0.08615030470056388,61.44805876180483
0.7727002840830492,0.8493670797694688,0.0001499330399451641,0.9880208333333333,0.04385837271991391,0.05443152867189495,60.72746441750132
0.750928159158079,0.89638709479439,0.0001378663132587561,0.9627016129032258,0.05319868871757565,0.05558578697036459,62.32460732984293
0.7090852294457936,0.8885574101284347,0.0001359147584955939,0.9754098360655737,0.07226811464992769,0.1068152854620224,61.51260504201681
0.7363868394923215,0.8794865069128331,0.0001395900539029925,0.9848958333333333,0.04924285675072297,0.05796582679709819,60.92014806980434
0.8513303861768954,0.8304055866281402,0.0001525647146996197,0.9621975806451613,0.05358173469134625,0.06719077622587839,62.35725510738607
0.9136002742897519,0.876817103687206,0.0001436244660105806,0.9718237704918032,0.04223250788017407,0.05516901115360567,61.73958882445967
0.8607208807193443,0.8920662535579199,0.0001428962676295488,0.9561491935483871,0.05188595317083816,0.05544159532159296,62.75171323141803
0.8966812136845155,0.8246857843459559,0.0001579060881487089,0.9449404761904762,0.04042582650954204,0.05556255556258334,63.49606299212599
0.7007400145908568,0.8455296229269058,0.0001546124673497325,1.009004237288136,0.06561386292140647,0.06461924289036616,59.46456692913386
0.7623493923840551,0.8154114122598312,0.0001551859430510171,0.9864583333333333,0.05629820465363192,0.06406928188575187,60.82365364308342
0.8797448923955671,0.8191057851295239,0.0001601200192728589,0.9890625,0.04338576055285882,0.0583925748414143,60.66350710900474
0.8621691724753151,0.7878217782889977,0.0001607411399175319,0.9632056451612904,0.05599297054443726,0.06976247758421804,62.29199372056515
0.8243743979272611,0.7986363088964222,0.0001644726795207559,0.9586693548387096,0.04446924395184027,0.05262694449505163,62.58675078864353
0.8338880373923596,0.8219814542902589,0.0001562494614993687,0.9409722222222222,0.06889664894849074,0.1082531754730548,63.76383763837639
0.8617632711970358,0.8616381828530854,0.0001478867310942498,0.9833333333333333,0.04249182927993988,0.05335661126891113,61.01694915254237
0.8480441272344627,0.8397895851606022,0.0001499109150363663,0.9916666666666667,0.0373550439105023,0.05427927234939375,60.50420168067227
0.7546605234698345,0.81853101802993,0.0001551299113483498,0.9942708333333333,0.05915300238341434,0.0644556328158751,60.34573074908329
0.8535368212507833,0.9236342334981249,0.0001359586072685629,0.9728483606557377,0.0670656681900029,0.06263007298148922,61.67456556082149
0.7256532841581816,0.9092933622578672,0.0001369280752345821,1.013469827586207,0.06359813008234026,0.04880001932340716,59.20255183413079
0.8093113029281369,0.86638289304623,0.0001455809583897006,1.008474576271186,0.06631135941550527,0.07130820369209355,59.49579831932773
0.8073673571485757,0.8677018501637576,0.0001493781044475771,0.9927083333333333,0.04128733579709669,0.05130061576595452,60.44071353620147
0.8593825996022756,0.8466344085300879,0.0001448514414957727,0.9805327868852459,0.06330524664582714,0.08068715304598785,61.19122257053291
0.8258821379936617,0.8673347871032392,0.0001451899997899089,0.9875,0.03336586953759784,0.04068403468150746,60.75949367088607
0.8378934766363382,0.8787100378972149,0.0001440078945412685,0.9723360655737705,0.04968470023034563,0.05929270612815711,61.70706006322445
0.7840444367800874,0.8535127988933654,0.0001520413724731849,0.9911458333333333,0.06013539050319888,0.07070131432623886,60.53599579611141
0.7778466075883868,0.8861378407319548,0.000143771213740499,0.9769467213114754,0.07065215986909554,0.06567458444228381,61.41583639223912
0.7366152419285071,0.8570941341692627,0.0001495847320864161,1.0,0.04602873089491617,0.05831922037816728,60.0
0.9801293888870015,0.910338415638531,0.0001839490024627605,0.8977272727272727,0.1297106535722403,0.1359948210269562,66.83544303797468
0.8213955554251622,0.9061139073051099,0.0001032197433252138,1.004237288135593,0.06891294901394318,0.07796319451046027,59.74683544303797
0.6565586784445989,0.8758467381191626,0.000107079543320903,1.043311403508772,0.06870372893780939,0.08118988160479113,57.50919600630584
0.6243952866822671,0.825404509078121,0.0001200350045194571,1.024784482758621,0.03057383827394635,0.04719372635231874,58.54889589905363
0.6893717972684675,0.70479210954487,0.0001727039088635655,1.002648305084746,0.09102467674640916,0.08538468352716712,59.84152139461173
0.83965065968438,0.8603963845674913,0.0001279125704457501,1.019396551724138,0.04883736721389939,0.05765187798404939,58.85835095137421
0.6461501197022955,0.874860336468669,0.0001762996641651927,0.935515873015873,0.1041477685049243,0.0810442494129178,64.135737009544
0.7054762797830191,0.8338737005553413,0.0001799331407380125,0.9652217741935484,0.1194726576969593,0.09263337747783366,62.16187989556136
0.9267833729099766,0.8802387061526019,0.0001174748384729818,0.9947916666666666,0.05710195864027394,0.06006925734488568,60.31413612565445
0.7862946472256385,0.8915575627709539,0.0001152509836125003,1.003177966101695,0.05509493060994002,0.05611213949116414,59.80992608236537
0.9288638656240324,0.8578629771457391,0.000117426231568029,0.9434523809523809,0.03559006173542083,0.03928865981835701,63.59621451104101
0.7246749471971288,0.8371299083534991,0.0001263919057656851,0.9901041666666667,0.0548707248081545,0.05533626978968937,60.59968437664387
0.7656565076421663,0.6350405899581045,0.0001894324076132875,0.9636270491803278,0.0828113551322139,0.07317661995701451,62.26475279106858
0.7093791985426017,0.7858892601303304,0.0001552038863598847,0.9692622950819673,0.08478135362567321,0.07781187248742957,61.90274841437632
0.7880289862344708,0.7147801675477706,0.0001531070479610961,0.9546370967741935,0.08671112912511245,0.086094537963875,62.85110876451954
0.8185542892293882,0.6476059035393422,0.0001839064404652653,0.9566532258064516,0.1052063961745947,0.1355085858691703,62.7186512118019
0.7532145455004943,0.5726330819949318,0.0002182967173924873,0.9606854838709677,0.1125245666320631,0.1082531754730548,62.45540398740818
0.7169597067983235,0.6218502208087106,0.0002025085138652344,0.9786458333333333,0.112888747701615,0.07424139652260806,61.30920702501331
0.8232549589496615,0.6617623237500441,0.0001814877888830877,0.9345238095238095,0.1253361410074141,0.1587997604257964,64.20382165605095
0.8249559733940371,0.646082950124103,0.0001815437677565538,0.9350198412698413,0.1239166330546221,0.1039480232243888,64.16976127320955
0.7539353694474222,0.5788962594373478,0.0002142771015427384,0.9707991803278688,0.1058407094553729,0.1225674771639415,61.8047493403694
0.7522064939643285,0.7109444250566871,0.0001656472146892707,0.9957627118644068,0.08146110676070936,0.09614400231441628,60.25531914893617
0.8127232578646776,0.6638516442042552,0.0001748728510963665,0.9927083333333333,0.06949564085050387,0.1134056064213609,60.44071353620147
0.8430053450823776,0.6049966808409635,0.0002080558213856388,0.92822265625,0.09122238577444594,0.1033449734227361,64.6396633350868
0.7276484497599122,0.5485458384077749,0.000237956389341327,0.9707991803278688,0.1040097806292334,0.1286574303139931,61.8047493403694
0.7035507968982246,0.575133798486687,0.0002336327789006675,0.9561491935483871,0.1193875707760286,0.1333050473753252,62.75171323141803
0.8388234156758956,0.6406438762158717,0.0001883745787780918,0.9404761904761905,0.09735373353450073,0.1134397354929466,63.79746835443038
0.884151599580476,0.7111266906384095,0.0001611320649149017,0.9434523809523809,0.1136811265165731,0.125816386471869,63.59621451104101
0.8838330712066665,0.6468751596697022,0.0001814388324231548,0.9384920634920635,0.09382739100119541,0.07867748197136738,63.9323467230444
0.888423379656877,0.6884360555643503,0.0001692394299761953,0.9566532258064516,0.09160084292777029,0.0712384949008449,62.7186512118019
0.65280819914714,0.7088409224123317,0.0001747291710878759,1.021012931034483,0.1115301724137931,0.08205572160043699,58.76517150395779
0.9275957618353968,0.7961850307610574,0.0001462501833378749,0.9449404761904762,0.08402139412793513,0.08334383334387502,63.49606299212599
0.8843357633050043,0.7108436834119112,0.0001668010240939912,0.9637096774193549,0.1088616334110792,0.1008258673792935,62.25941422594142
0.8070483049345861,0.6539969703914345,0.0001800998143653968,0.9546370967741935,0.07811036543471983,0.07685962961096304,62.85110876451954
0.8542440109846111,0.6460927608311606,0.0001924076972235574,0.96875,0.04932952097217509,0.0480749198300597,61.93548387096774
0.896842614770389,0.6815421107433891,0.0001726306465811119,0.9647177419354839,0.07043478858694928,0.1024795061479507,62.19435736677116
0.8768583561102835,0.6587925702132963,0.0001764328398037098,0.9748975409836066,0.06010249744287896,0.09757809372497497,61.54492905937992
0.8799977789976052,0.7360452444870581,0.0001535196947900906,0.9566532258064516,0.03779905899042877,0.04965299670681734,62.7186512118019
0.855353720221283,0.7202622555353337,0.0001608118267913204,0.9848958333333333,0.0563343310747442,0.0885754131435994,60.92014806980434
0.893411371614222,0.7097382836421171,0.0001662455926740627,0.9707991803278688,0.07735146818565035,0.07833305629383634,61.8047493403694
0.9170572400163803,0.7744623697015947,0.0001498127524550135,0.9748975409836066,0.05793239730830811,0.06629126073623882,61.54492905937992
0.8927092121427116,0.736687605754832,0.0001604822037087596,0.9484126984126984,0.061791301956509,0.0601891340263233,63.26359832635983
0.9066437461149732,0.7960547030872906,0.000141737800946152,0.9484126984126984,0.0715559105232671,0.0689695906576505,63.26359832635983
0.8747821847243561,0.8988415847179594,0.000175295557019837,0.8759191176470589,0.1089105934016696,0.1188432469715729,68.49947534102833
0.5334621088924425,0.9124219230071495,0.0002095528752932508,0.9621975806451613,0.1287415213078626,0.1339041742024962,62.35725510738607
0.6357319641314372,0.8532455162447554,0.0002067876574148441,0.9010416666666666,0.1215897659367578,0.101298658773109,66.58959537572255
0.7141169190140582,0.8847809014007252,0.0001170779848436527,0.9942708333333333,0.06262790731220033,0.0733441865684652,60.34573074908329
0.5901041996413563,0.8557677893496052,0.0001193688851347963,1.022090517241379,0.04820617757745384,0.06167214887912064,58.70321560358461
0.6043553236206413,0.8517696050517476,0.0001208944408931688,1.027478448275862,0.05415071728125963,0.06398991662617293,58.395385422129
0.590321204017912,0.855820803771748,0.0001227927526383076,1.037828947368421,0.04250936836618449,0.046875,57.81299524564184
0.630599231495922,0.8856760749698981,0.0001225944944191412,1.010593220338983,0.06575480742728176,0.06804596411807698,59.37106918238993
0.6845720755121982,0.8911243276868623,0.0001221699399249353,1.035087719298246,0.04264350105839924,0.05298695299316616,57.96610169491525
0.65217674456045,0.8737283004282892,0.0001208536262439345,1.021012931034483,0.0368788037901888,0.03838502426362785,58.76517150395779
0.6469981165629201,0.9190791449209227,0.000139879137283538,0.954133064516129,0.09114625916604356,0.0899147193861777,62.88431061806656
0.6242689781096129,0.8665792957776196,0.0001217539074408512,1.008474576271186,0.03631172987500553,0.04494968451425477,59.49579831932773
0.6468574330672607,0.8656783414162588,0.000120634090361144,1.010063559322034,0.03792165745692531,0.05206537046563808,59.4022024121657
0.6034584257995991,0.8873299282687409,0.0001208238759309145,1.03125,0.06890656154632831,0.06725344835612129,58.18181818181818
0.569195058142075,0.8754223775701291,0.0001206491806072709,1.010593220338983,0.07223224810221958,0.08338943872805063,59.37106918238993
0.559142116181086,0.8834028174653297,0.0001194283633225029,1.03344298245614,0.04374986259486843,0.05011148285857957,58.05835543766578
0.5508768907236125,0.8668232719351959,0.0001210210969767373,1.030172413793103,0.04142754910935578,0.04360879468277254,58.24267782426779
0.5120265706595329,0.8681910542618102,0.0001188617804594013,1.056919642857143,0.04765245991118124,0.04150061609619352,56.7687434002112
0.6069040493099581,0.8879338310187964,0.0001203821472742377,0.9859375,0.04719508769017527,0.04638693653773584,60.85578446909667
0.5669955278568588,0.8709748293767465,0.0001194338291153756,1.03234649122807,0.03836936010290064,0.04112840574260777,58.12002124269782
0.6023579026289883,0.879631817237647,0.0001200173345241534,1.026400862068966,0.04295840358896044,0.04571855644602935,58.45669291338583
0.6174685250964909,0.8841590080006375,0.0001190891458774805,0.996875,0.05552190821348512,0.05288924508595969,60.18808777429467
0.6549676325571665,0.9021133043611866,0.0001204810275107686,0.9947916666666666,0.07152693500042873,0.05518650965097927,60.31413612565445
0.5132132559207945,0.8548545870765558,0.0001208158397332645,1.040021929824561,0.06132513795662089,0.06037110864418983,57.69109119662625
0.5578163786842099,0.8861011629687875,0.0001205935473554175,1.033991228070176,0.04872296742432869,0.04319643410795453,58.02757158006362
0.5523199462009987,0.8628053655700572,0.0001204908787854522,1.046052631578947,0.0646836894901431,0.05725783633205652,57.35849056603774
0.5925206776460938,0.862187882165762,0.0001232755538512715,0.99375,0.03688735668672036,0.04882084161780895,60.37735849056604
0.6668150215661233,0.8786199527085417,0.0001206580158441432,1.004237288135593,0.04863661136969914,0.04802819978031585,59.74683544303797
0.5560893977496012,0.8733935237298942,0.0001187073202876042,1.043311403508772,0.06693537864104182,0.07435079888368959,57.50919600630584
0.5277174042661029,0.841920319441597,0.0001225159473766387,1.045504385964912,0.04422137024139426,0.05331504871650083,57.38856843209229
0.5497837999252048,0.8377460686703558,0.0001232028253819515,1.046052631578947,0.03931345403946833,0.04742975303766914,57.35849056603774
0.531620853699921,0.8482271022495461,0.0001236034875199617,1.073863636363636,0.03442075279741127,0.03920690899526463,55.87301587301587
0.5371913661687373,0.8665750597412005,0.0001218756005179026,1.013241525423729,0.062288676061301,0.05535689456483328,59.21589127025614
0.6644915036754971,0.856927434772404,0.0001188503012119024,0.9859375,0.03443413474180332,0.04228008907515912,60.85578446909667
0.7092096085519298,0.9048593647140687,0.0001194906350528706,0.9641393442622951,0.06667319251070859,0.04133986423538423,62.23166843783209
0.5419725658669327,0.8382793376650837,0.0001196410374324249,1.025323275862069,0.04622643874741734,0.05235673853646194,58.51812926957436
0.6825865382746534,0.9020719013748886,0.0001216720906987164,0.9494047619047619,0.06084835803649068,0.04811858461638155,63.19749216300941
0.6421115546766936,0.8959480368997265,0.0001223850897111733,0.9642137096774194,0.0693900680639219,0.06964764215231589,62.22686879247256
0.6411991644501672,0.872109187307454,0.0001218566005490123,1.014300847457627,0.0435611974469324,0.04941058844013093,59.15404699738903
0.6134687558260685,0.8525267220787697,0.0001211888114926491,1.042214912280702,0.03815726456426604,0.04761323439219094,57.56970015781167
0.5677890449452162,0.8405654515182976,0.0001214853025668831,1.049342105263158,0.03094553901682036,0.03895073296119453,57.17868338557993
0.6212857550533235,0.8677590936859875,0.0001197795052445091,1.022090517241379,0.03805649436726359,0.03793606116668025,58.70321560358461
0.6058110467064682,0.844708409970884,0.0001204419012430054,1.011122881355932,0.04630218935596259,0.04855120830202073,59.3399685699319
0.7566281406084934,0.8910796834658452,0.0001215983416865752,0.9444444444444444,0.04993933709783024,0.03549761464044155,63.52941176470588
0.7662000981965115,0.8535578141529269,0.0001192932257341113,0.9306640625,0.03885442629702688,0.03565222782949684,64.4700944386149
0.6643340639819055,0.8484530030168904,0.0001217644964005437,0.9551411290322581,0.04815816559257024,0.0459697423651118,62.81794195250659
0.6560285990539113,0.8555555091896498,0.000120771648980611,0.9947916666666666,0.03570653437708877,0.03354891445362948,60.31413612565445
0.6983962706479679,0.8347389156064109,0.0001208296054581601,0.9748975409836066,0.04227598572905279,0.05382504451151589,61.54492905937992
0.718976182587944,0.8664999392745684,0.0001207437667102476,0.9454365079365079,0.04723514229014846,0.0497283446952443,63.46274921301154
0.7655041845629007,0.7970537970172955,0.0001198844286528005,0.9197115384615384,0.04244950010508484,0.04470907477445155,65.23784631468898
0.6992663875611587,0.8937479196148436,0.0001380100352421194,0.9379960317460317,0.07438822567566453,0.07917639300749574,63.96615547329456
0.7616622793772005,0.9102178168492723,0.0001660297073410037,0.8991477272727273,0.1014506894072108,0.1135368882786559,66.7298578199052
0.7668826646339973,0.8686474480842119,0.0001186433261460693,0.9927083333333333,0.06207319548099825,0.07633001497733823,60.44071353620147
0.7674749381848212,0.8678869801467147,0.0001217091406375932,1.009004237288136,0.06586564218944836,0.08449265424100284,59.46456692913386
0.7782088791142115,0.8809550778202098,0.0001254348694755635,1.010593220338983,0.06213084024836941,0.07521520847678943,59.37106918238993
0.6721364690480781,0.858810902211528,0.0001283946287365757,1.035635964912281,0.08962767858161111,0.08749601393981982,57.93541556379037
0.614497554142582,0.8235463146706592,0.0001369148427493562,1.06640625,0.03395774562192276,0.05262970989504278,56.26373626373626
0.6479950554235657,0.8637911432877102,0.0001338512117938045,1.046052631578947,0.0705129970731119,0.07493486755176124,57.35849056603774
0.5996672575863842,0.8624844760115006,0.0001308623667635359,1.047697368421053,0.0410196181359866,0.04005437152885348,57.26844583987441
0.6291185383371808,0.8316484056725216,0.0001287181377031223,1.029605263157895,0.02645249579345355,0.03616484764736529,58.27476038338659
0.6160269175745887,0.8223934479573209,0.000129293773296703,1.042214912280702,0.02776094057274597,0.04555431167847891,57.56970015781167
0.6223490042840377,0.8301181615874639,0.0001315098674789842,1.050986842105263,0.06348769429479863,0.08032613489038652,57.08920187793428
0.5551862083053668,0.8201367210249051,0.0001329856925323959,1.068638392857143,0.04628333546817848,0.04914033706918103,56.14621409921671
0.6032487345558836,0.8874082779692942,0.0001303181170606646,1.01218220338983,0.06928646366850776,0.04642383454426297,59.27786499215071
0.6643878113115238,0.8848756281631154,0.0001738370683343205,0.8668478260869565,0.1474085642495533,0.1318221074581418,69.21630094043887
0.6908355568511693,0.8920144612914703,0.0001068544972387725,1.075568181818182,0.03801301973563121,0.0506754149976612,55.78446909667194
0.6409775303541096,0.9241736193152263,0.0001635084928383647,0.9621975806451613,0.1356521147794855,0.1433172388187232,62.35725510738607
0.7492351248269965,0.8922105005093979,0.0001157004530745921,1.028556034482759,0.05231844722926675,0.05568675115667968,58.33420639078051
0.3789668683949083,0.7721150145890087,0.0004229358297200049,0.9149038461538461,0.1262566273379166,0.1591527249020575,65.58066211245402
0.5927483148855651,0.6416607094841358,0.0003975377046420012,0.8582427536231884,0.1144283838038176,0.1588026776889372,69.91029023746702
0.7693821075115609,0.8721902912242714,0.0001536796464287256,0.9973958333333334,0.06512499666773292,0.09419035000411828,60.15665796344647
0.615877356815615,0.8829385526118533,0.0001358522635025489,1.032327586206897,0.05285667443289103,0.07322927974711141,58.12108559498956
0.5782080106281403,0.8728093912403686,0.0001354289996240655,1.030711206896552,0.05427922702539559,0.07240579178636558,58.212232096184
0.606096449428006,0.8818589371781311,0.0001352811743106412,1.031798245614035,0.03770558961414342,0.06615959971106665,58.15090329436769
0.730580723283304,0.9392729603574305,0.0001438357857522798,1.003707627118644,0.07827522543182698,0.06154989040299495,59.77836411609499
0.8155263745044679,0.9439139201770406,0.000149263140145223,0.9551411290322581,0.07266635004849528,0.05714788839091943,62.81794195250659
0.6720933991788656,0.9269614836052583,0.0001493117435279455,1.017780172413793,0.06644653797295208,0.06648481227436756,58.95182636315511
0.5405850148898471,0.8886086676676457,0.0001501436472870422,1.045504385964912,0.05493410109594452,0.07025046866900096,57.38856843209229
0.5046063697181141,0.888761798930973,0.0001498993793493437,1.059151785714286,0.03991418469251711,0.06755153756409048,56.64910432033719
0.5081182621085442,0.87957488786675,0.0001523119893860324,1.049890350877193,0.08129208785143427,0.1082531754730548,57.14882506527415
0.5276477212511781,0.8859438626126873,0.00015062679592699,1.059709821428571,0.06944574540837799,0.08958553556137387,56.61927330173776
0.4951314792354222,0.8825735291008251,0.0001508359506676253,1.080681818181818,0.05889938366990111,0.06764152687075749,55.5205047318612
0.4823783327941419,0.8939445864064177,0.0001521135844630036,1.047697368421053,0.0507297565027586,0.08032613489038652,57.26844583987441
0.6141435024604754,0.8707095657342396,0.000253341761950797,0.9096153846153846,0.1618815038902689,0.1650823953837144,65.96194503171247
0.801330678384203,0.9167253113938713,0.0001614724131882414,0.8871268656716418,0.109983677326391,0.1254136149331725,67.63406940063092
0.565162233492708,0.8959705266726292,0.0001183211918700594,1.021012931034483,0.07233686197250837,0.05018469178418539,58.76517150395779
0.3887269942956815,0.7283232957715773,0.0003677612667587789,0.9424603174603174,0.1265046285490917,0.1444648250803076,63.66315789473684
0.4346945808761126,0.7297063509247331,0.0003551690940213647,0.9067234848484849,0.1292474878777314,0.1302964445468043,66.17232375979113
0.6025663744580083,0.9079676012289072,0.0001394055027283356,1.047697368421053,0.04650079552333339,0.06346905003621844,57.26844583987441
0.5015047009670246,0.8935713285016155,0.0001438488411749253,1.080113636363636,0.04721040472236588,0.07630993394387468,55.54971067859022
0.4409520452564933,0.8827666958046038,0.0001449545616685064,1.0875,0.06959705453537528,0.09660019266141358,55.17241379310345
0.4315295478650068,0.8792067464992324,0.0001469682372936968,1.090856481481481,0.03720394250103109,0.06524061958163968,55.0026525198939
0.4422446172038657,0.8853575402162304,0.0001456463033694734,1.098958333333333,0.04687499999999999,0.07195570735358466,54.59715639810427
0.4182008962059097,0.8836283956228111,0.000147824446740102,1.096643518518519,0.04306193326917972,0.07447239738116475,54.71240105540897
0.3992578444618895,0.8738632056097764,0.0001460103201860655,1.086363636363636,0.05837636154109693,0.07583447801333873,55.23012552301255
0.3827996765235256,0.8915987301435205,0.0001453455123382946,1.118514150943396,0.08264818616950581,0.09223536078341188,53.64259356879283
0.4130992604931358,0.891726848824249,0.0001475486206014036,1.120872641509434,0.07892578647299574,0.08279322163122367,53.52972119936876
0.4050145420114033,0.8832220292116525,0.0001484922557177679,1.124410377358491,0.04439823254013373,0.06442352540027595,53.36130047194546
0.4253576260394468,0.8665974248101246,0.0001482808992618315,1.105324074074074,0.06052919844904112,0.08552780773658597,54.282722513089
0.3974430790930819,0.8689219823038578,0.0001499586669970437,1.118514150943396,0.03759740228049495,0.0625,53.64259356879283
0.3929899272347653,0.8682824301992329,0.0001485789120523772,1.126179245283019,0.03837533041337967,0.06543585379238558,53.27748691099477
0.4137370544557507,0.8884812306337464,0.0001500882508770264,1.085795454545454,0.05845373249823493,0.07795119555779044,55.25902668759812
0.3813591983914492,0.8792867028607144,0.0001512470685430707,1.119693396226415,0.04323988706910165,0.0721253999455649,53.58609794628752
0.4222370019610638,0.87065140820681,0.0001538030855080555,1.101273148148148,0.04031451203760135,0.06908153338423359,54.48239621650026
0.4337990444528147,0.8801075733991058,0.0001554108609050119,1.099537037037037,0.03661873152675087,0.05932377383064427,54.56842105263159
0.4198689171363691,0.8709346229230298,0.0001555944154592805,1.102430555555556,0.04270268707030849,0.06070536639732901,54.4251968503937
0.4379827509024539,0.8696417429535086,0.000155457380724303,1.105324074074074,0.06258567516016562,0.08691685736575859,54.282722513089
0.4486124785743981,0.8793143247405618,0.0001561113160619811,1.102430555555556,0.04395482257351446,0.07335057330228295,54.4251968503937
0.5334529051501373,0.9169835066608907,0.0001556166862772966,1.103587962962963,0.06127977653775466,0.05629584085981137,54.36811746198217
0.4626661837332438,0.8723554066234686,0.0001544372179256377,1.120872641509434,0.03593313439903913,0.06204764182278993,53.52972119936876
0.4606806267533775,0.8739719573007356,0.0001546247394569354,1.103009259259259,0.06181032371675318,0.07459600310502758,54.39664218258132
0.4093392913119812,0.868939612796123,0.0001536794055311379,1.107638888888889,0.03835194797634466,0.05790922874279113,54.16927899686521
0.4236862982420471,0.8626454891991603,0.000155897717796748,1.084659090909091,0.03190936609567948,0.0504966651814201,55.31691985332635
0.469142129252882,0.8681755397768968,0.0001559992320062445,1.100115740740741,0.03577212838084628,0.05378509166028873,54.53971593897948
0.445049259635621,0.8651187269507254,0.0001528709636378611,1.096064814814815,0.06158234071492143,0.07335057330228295,54.74128827877507
0.4771167153415378,0.868076063668768,0.0001539121737635861,1.076704545454545,0.04907459745838451,0.05877191277712068,55.72559366754618
0.5696660523031615,0.9070871814837914,0.0001529697464888083,1.076704545454545,0.07071524348510033,0.07806710818026776,55.72559366754618
0.4319573163443636,0.8855100923141791,0.0001544711948579769,1.105902777777778,0.06376516552849638,0.08744523218606874,54.25431711145998
0.4400486846013703,0.8760600736817337,0.0001538722633762914,1.105902777777778,0.05622963451632516,0.0700088437809622,54.25431711145998
0.4571301242982741,0.8760802493552051,0.0001545807309999777,1.107060185185185,0.04871090396184945,0.06100813818277281,54.19759539989546
0.4439162969553386,0.8736839203752348,0.0001527413191139236,1.104166666666667,0.08547592795202201,0.09196412215723555,54.33962264150943
0.4452517248634151,0.8847881599137238,0.0001577382917483515,1.116155660377359,0.04393381134480461,0.0682455267623961,53.75594294770205
0.4910266738993508,0.7695782481701278,0.0001917801398017554,1.100115740740741,0.04352605948257817,0.06495757868256703,54.53971593897948
0.4402960247569186,0.7305780450597369,0.0002122827338603894,1.084659090909091,0.05183861239980474,0.06961783908251187,55.31691985332635
0.4477142923529124,0.7265192123474391,0.0002100755890159687,1.104166666666667,0.05983919423477112,0.07738446195994508,54.33962264150943
0.4389528049586428,0.8393039821162216,0.0001721646633419282,1.068080357142857,0.0660559676649897,0.07175756216088118,56.17554858934169
0.4679312914224626,0.7837818900184924,0.0001923489003467278,1.096064814814815,0.04534615283370308,0.06663779347238266,54.74128827877507
0.4363292814154259,0.8133254873666197,0.0001859937225440801,1.101851851851852,0.07587862686612855,0.08932150562952086,54.45378151260504
0.4721541248874328,0.8746235969240049,0.000157652459546784,1.081818181818182,0.03448634296703073,0.05625642967367935,55.46218487394958
0.5308465759581296,0.8585505697874235,0.0001669037232703822,1.0875,0.07356583322563416,0.091702171154474,55.17241379310345
0.4917795767186789,0.8703094076396976,0.00016197454407213,1.094907407407407,0.03400099727214903,0.05885603638428198,54.79915433403805
0.4714900896455156,0.7702850749424283,0.0001956099965430633,1.079545454545455,0.07269619364346346,0.08756611258971175,55.57894736842105
0.5698196886142133,0.7958384717134723,0.0001895631070272467,1.066964285714286,0.08063567798298411,0.08838834764831845,56.23430962343096
0.620381357614521,0.7404064447287183,0.0002088731025579933,1.061383928571429,0.1241551086009319,0.1034730696189286,56.52996845425867
0.6285484856738579,0.7787577026404549,0.000206513067329149,1.063616071428571,0.0835116806987966,0.09855129605715723,56.41133263378804
0.6219033553641018,0.8725621651327339,0.0001717423100475712,1.064732142857143,0.07132386298513596,0.08563350156865647,56.35220125786164
0.6421568285020661,0.8517224774141677,0.0001790639344494893,1.107638888888889,0.06411869900215063,0.07714598847468253,54.16927899686521
0.6370682442289841,0.7903321951600351,0.0001949553399024996,1.083522727272727,0.0636414364861175,0.07291666666666667,55.37493445201888
0.5316066200039538,0.8348089556374333,0.0001763224288451718,1.102430555555556,0.03031987707738364,0.05042566451232382,54.4251968503937
0.4239107409907956,0.7958629338634687,0.0001808394905961191,1.084090909090909,0.08058573023405181,0.09384640105374709,55.34591194968554
0.4543190399350496,0.837350346572135,0.0001669231124287913,1.080681818181818,0.05484058414551662,0.07013545096084776,55.5205047318612
0.6603776797296929,0.871247801634067,0.0001772969986988457,1.061383928571429,0.04573169921550865,0.04822856330207047,56.52996845425867
0.6140033963635693,0.846091729058607,0.0001790718741565853,1.082386363636364,0.05173263472768198,0.06073908223797188,55.43307086614174
0.4912813335233858,0.8565897835103278,0.0001712833538311835,1.080681818181818,0.03135828346942416,0.05120792084636328,55.5205047318612
0.5575908318067674,0.841891834333169,0.0001918090432799962,1.044407894736842,0.1225006948743176,0.140376765031519,57.4488188976378
0.8470876994438244,0.9524378778808401,0.0001337259240747521,0.8931902985074627,0.1444872049902033,0.1338597857268884,67.17493472584856
0.673748837023258,0.8730582699201384,0.0001254971975461356,1.037828947368421,0.04673291408141685,0.05905694890769175,57.81299524564184
0.6249697730542756,0.8548224053608716,0.0001284025156171537,1.044956140350877,0.05170395067040496,0.05905694890769175,57.4186778593914
0.5818147827749834,0.8554466329161227,0.0001288322304476347,1.041666666666667,0.04111476591941376,0.06576303510114391,57.59999999999999
0.5554489794771055,0.8449479565394716,0.0001279209730105878,1.036184210526316,0.04004070095725924,0.07172441523687334,57.90476190476191
0.6561689733930265,0.87167052354264,0.0001258604587498324,1.01271186440678,0.06737321447524511,0.08155199182539723,59.24686192468619
0.6882891574915885,0.8693418884147986,0.0001277292467778862,1.023706896551724,0.04033398119011401,0.0564506654662188,58.61052631578947
0.6362710263690128,0.8743876060929128,0.0001271064044026286,1.025862068965517,0.0434789676763621,0.05491221063837243,58.48739495798318
0.6982308767892661,0.8103210852651621,0.0001535946557717346,1.023706896551724,0.03906157103532728,0.05186357145299241,58.61052631578947
0.7017607537575224,0.8593624424577239,0.0001431083924999059,0.990625,0.04917946514213697,0.0573918935839596,60.56782334384858
0.5574279876376659,0.8481357138262884,0.0001418821901318108,1.049890350877193,0.07354669446374565,0.06455872707133738,57.14882506527415
0.6892038355801009,0.7266835675984129,0.0001846208099632696,1.013469827586207,0.06990412272611828,0.1145584103676588,59.20255183413079
0.7088559731579652,0.664604242691679,0.0001904660112725209,1.007944915254237,0.100084911702097,0.1304702824863538,59.52706253284288
0.7395207111429799,0.7987646673385305,0.0001573308116930244,1.002118644067797,0.08295242351886395,0.0773125862416936,59.87315010570824
0.6722008619230913,0.7738827007569252,0.000157084351783256,1.005826271186441,0.08677716267755668,0.07914208632318336,59.65244865718799
0.5984974172991797,0.7976692473076896,0.00015658620114586,1.035635964912281,0.041158606094569,0.063055566481364,57.93541556379037
0.7131617731974985,0.8356328933101321,0.0001410317061205737,1.022629310344828,0.0413574160827489,0.06304586189239057,58.6722866174921
0.7463743092523117,0.8191939522676336,0.0001559382031602129,0.9864583333333333,0.04751872803315435,0.06419832387325695,60.82365364308342
0.7643452942350133,0.7851025281906236,0.0001542250547656912,1.01218220338983,0.06484400823221564,0.07442759296677265,59.27786499215071
0.7316768454635699,0.6896722400845936,0.0001850491978764262,0.9927083333333333,0.1112732107497378,0.1060909826996126,60.44071353620147
0.6757796680480748,0.7036991055604203,0.0001769091653277702,1.003177966101695,0.08814361416402867,0.09045949512693893,59.80992608236537
0.7783232429047249,0.6701384827990263,0.0001916914139757191,0.9769467213114754,0.1287726831423359,0.147350736622975,61.41583639223912
0.6769152781524899,0.7056890440942837,0.0001828481507618651,1.03234649122807,0.03792021154778637,0.06123154787654109,58.12002124269782
0.7394651555839883,0.7650249847988126,0.0001588038057457952,0.9947916666666666,0.05447627860413701,0.0539734711985466,60.31413612565445
0.7452285470741223,0.713313771638075,0.0001778608279335133,1.005296610169492,0.05371295480545432,0.04837750038089451,59.68387776606954
0.815245901690115,0.7378449641062577,0.0001752533898845069,0.975922131147541,0.09441252284113957,0.04973890160963884,61.48031496062992
0.9051367112280271,0.9308766687837082,0.0001334102263523194,0.8875932835820896,0.1238354923731789,0.06827053886760179,67.59852863899107
0.4660872383492384,0.6821848849888966,0.0001793925828546738,1.039473684210526,0.06345928180991416,0.07562979618793489,57.72151898734177
0.496953056810488,0.7694053413908619,0.0001662977188926433,0.9795081967213115,0.1322058827156229,0.1378782675647858,61.25523012552301
0.4755765102784508,0.7362825224352015,0.0001605965532406085,1.011652542372881,0.05721810074494237,0.07698522025642997,59.30890052356021
0.5032953301725361,0.7141696203924007,0.0001801202373558035,0.9702868852459017,0.1151923714963541,0.1169267933366857,61.83738120380148
0.61744092142926,0.7002908273523679,0.00017203990277246,0.9656762295081968,0.1106960498823417,0.09606516343087124,62.13262599469495
0.5321606338974574,0.8069033198347282,0.0001456856265946846,1.00635593220339,0.05171184426889374,0.06316990123796137,59.62105263157894
0.7068746529870519,0.7880589191916871,0.0001576178139120888,0.953125,0.08993410165854236,0.08012301633052539,62.95081967213115
0.5242863627276587,0.7881630966004103,0.000145377959959984,1.030172413793103,0.03013390399592578,0.04701186160511991,58.24267782426779
0.6264680029010126,0.7471393223235006,0.0001625171721915036,1.000529661016949,0.03615688170736443,0.0547451973960368,59.96823716251985
0.4843287596183365,0.7269706968308182,0.0001645160530190932,1.034539473684211,0.03397353812462647,0.05232459004344215,57.99682034976152
0.5976289924345376,0.8190657863609887,0.0001438149802543947,1.026939655172414,0.0500700868771075,0.05568675115667968,58.42602308499476
0.6416732153438153,0.7575525483222937,0.0001586052466514037,0.9848958333333333,0.08755423666299016,0.07446400990536596,60.92014806980434
0.6707139075876714,0.8469835653570605,0.0001358825258639847,1.015625,0.03903555104887921,0.05568675115667968,59.07692307692308
0.6670480701213903,0.8019486288679321,0.0001454734523006382,1.00635593220339,0.04219374209036956,0.05381461633268868,59.62105263157894
0.5053366537204822,0.7563882187642483,0.0001526086840232543,1.024245689655172,0.02961402173202865,0.04914984472856557,58.57969489742241
0.6536838857477839,0.7389330935595675,0.0001634681850967102,0.9890625,0.05437410200407911,0.06236744417739386,60.66350710900474
0.7885670560037547,0.8168106389348776,0.0001508653149363415,0.9208984375,0.09631401806426515,0.05011148285857957,65.15376458112407
0.5892081690530919,0.81105522626282,0.000145928113602469,1.01218220338983,0.0827831534091654,0.09284766908852593,59.27786499215071
0.6181835549675853,0.8041229312770952,0.000145458291730339,1.019935344827586,0.04131879217680569,0.05506799027231318,58.82725832012678
0.700080491555121,0.8274740763118164,0.0001485098246633281,0.975922131147541,0.1118024599147943,0.10434879910665,61.48031496062992
0.7576953225009498,0.8570800379498875,0.0001357661911045505,1.001059322033898,0.04418147617303543,0.05397082744888428,59.93650793650794
0.7470179004092252,0.7488557555819174,0.0001644319842799573,0.9702868852459017,0.09609869239725503,0.09555553032137909,61.83738120380148
0.891673368769061,0.8781734460344633,0.0001834705833569986,0.8546195652173914,0.1268908266968537,0.162468181273967,70.20667726550079
0.6906629740311898,0.9298452998624614,0.0001406615805913399,0.9822916666666667,0.08991580745650654,0.1108966489001725,61.08165429480382
0.591610303520487,0.8601579367535832,0.0001270448612717979,1.038925438596491,0.0366874232989509,0.04797809209867115,57.75197889182058
0.5255916503612089,0.831298207874758,0.0001287171984151628,1.030172413793103,0.06487033165212246,0.07918686261322844,58.24267782426779
0.5172882312926367,0.8409876078012809,0.0001283546118347511,1.038925438596491,0.05683802711708087,0.071602745233685,57.75197889182058
0.5442592854628596,0.8181790587304866,0.0001264321356944297,1.021012931034483,0.04692451803836855,0.05568675115667968,58.76517150395779
0.5557218923453187,0.8187021428608344,0.0001283951008422025,1.026939655172414,0.02559125449792654,0.03560643175686298,58.42602308499476
0.5619194407674937,0.8183064129585265,0.0001271681465921346,1.011853448275862,0.02949123315388795,0.04097562925669911,59.29712460063897
0.5139845426014613,0.8134101915521612,0.0001271988608605311,1.046052631578947,0.05943852302497582,0.071602745233685,57.35849056603774
0.4816453176747107,0.8332842294404575,0.0001263030152650317,1.041118421052632,0.05527229456635334,0.06137378162887286,57.6303317535545
0.4769700641820984,0.8120357588213184,0.0001265600191431953,1.043859649122807,0.04174594258947692,0.05045827926543445,57.47899159663866
0.4928883304297846,0.8252074771361192,0.0001260111004344857,1.03125,0.04184587896324914,0.0468292905790847,58.18181818181818
0.5676229544318645,0.8664229579948386,0.0001240474746914112,1.005826271186441,0.05096869374457377,0.04660482483902136,59.65244865718799
0.539156368575611,0.8181372922073258,0.0001257148470516013,1.009533898305085,0.02714222028669271,0.02690730816634434,59.43336831059811
0.7222830700506165,0.8791789254598449,0.0001250751518066647,0.9499007936507936,0.0555511265241334,0.05926613534209141,63.1644908616188
0.6552521862189379,0.8816638712646973,0.0001244284949252082,1.006885593220339,0.05050978093805993,0.04144156147204614,59.58968963703315
0.6931738497157347,0.8934209636250496,0.0001252717991728394,0.9677254098360656,0.05060064846256453,0.04114253678777396,62.00105876124934
0.6789190108949384,0.8928425357289612,0.0001226288916292745,0.9901041666666667,0.06051312343317678,0.06672677816086144,60.59968437664387
0.5888858374045888,0.8615244138686567,0.0001241553064374444,1.038377192982456,0.05491768407079455,0.06523053212590382,57.78247096092925
0.5361961196829157,0.8361049125163872,0.0001256671454589903,1.047149122807018,0.04462732768633491,0.05396525626668117,57.29842931937173
0.5405161230345166,0.8550830358262305,0.0001263664489126652,1.058035714285714,0.03515182086612416,0.04459412925079223,56.70886075949367
0.510539535197042,0.8363657197788393,0.0001264815092385772,1.065909090909091,0.03134798687303118,0.04811252243246882,56.28997867803838
0.5939402943980715,0.8632719829270398,0.0001276702833276137,1.027478448275862,0.0528923615110239,0.06999960839489458,58.395385422129
0.6429433533979685,0.8460394064373751,0.0001253470991801657,1.020474137931034,0.0564268425068364,0.06687023470478987,58.79619852164731
0.6602664333051118,0.8975616693885833,0.0001265409064316214,1.02801724137931,0.06348619966230792,0.05001370426228283,58.36477987421384
0.5611506222082476,0.878222223739524,0.0001333601942951753,1.065290178571429,0.0480785902563661,0.0463512405443479,56.32268203247774
0.5744608243400954,0.8583447054869036,0.0001378706229609254,1.03344298245614,0.03964084974237986,0.04869960765462372,58.05835543766578
0.5771421016504925,0.8713426367511731,0.0001367226642842246,1.043859649122807,0.05790678037943375,0.05695245902755837,57.47899159663866
0.707515519792743,0.8690795690870422,0.0001298498307929143,1.013469827586207,0.03389261304378567,0.04321413683977753,59.20255183413079
0.6150752419068937,0.8218051651186697,0.0001387403077740254,1.039473684210526,0.02586650463176633,0.04027146998363552,57.72151898734177
0.498361730950275,0.8741708356221145,0.0001264970625277376,1.048793859649123,0.04646846513249362,0.03443582281370873,57.20857292211186
0.4676934349158928,0.8367104483564656,0.0001279108698090727,1.043859649122807,0.06593095167939386,0.06509672576525753,57.47899159663866
0.5595393785645403,0.8456502406134512,0.0001330158360952079,1.043311403508772,0.05667915782157933,0.04993718152052923,57.50919600630584
0.588265067004956,0.83920883163042,0.0001253025617011119,0.96875,0.03395090476594445,0.03302264059197366,61.93548387096774
0.6430037214651146,0.8479364235634358,0.0001240126780079443,0.9769467213114754,0.05570134270746206,0.05321683239352,61.41583639223912
0.7118998920557962,0.8682664791871353,0.0001266892165451372,0.9429563492063492,0.04996888991850408,0.04181341764507286,63.62966859547607
0.8410851676199878,0.8647830424016612,0.000126490242531013,0.93212890625,0.02951982226599969,0.03222679736266029,64.36877946568885
0.7542832575438718,0.8651330091264611,0.0001233413754435666,0.9796875,0.03645461290541066,0.03254722774520596,61.24401913875598
0.6956899448056585,0.8872804131489157,0.0001234945479171524,0.9576612903225806,0.05268041383247548,0.04119438625609554,62.65263157894737
0.5446500466161884,0.8859569060881646,0.000342505363408252,0.8948863636363636,0.1379036305874544,0.1747250587461517,67.04761904761905
0.4394751519499461,0.8718480730749462,0.0002775290064083228,0.9802083333333333,0.1012562155156688,0.08475569327409742,61.21147715196599
0.6881555905707535,0.8598149798647046,0.0001261978406234044,1.009533898305085,0.03784019300739778,0.04837750038089451,59.43336831059811
0.8505684201148096,0.8472996405327046,0.0001453291924054915,0.9932291666666667,0.08502673956451713,0.0895972923035936,60.40901940220241
0.7043210299496178,0.758052715582595,0.0001764202158019485,0.9927083333333333,0.09519146458877263,0.123534845492466,60.44071353620147
0.6242913110140689,0.7556574508754611,0.0001623299081282463,0.9800204918032787,0.1038810134189037,0.1334390856658323,61.22320961840042
0.7472671180892724,0.8609037453033497,0.000141182731666961,0.9616935483870968,0.05337032859656873,0.06120586399100372,62.38993710691824
0.7211672566336508,0.8777622449368871,0.0002973521781038222,0.8795955882352942,0.1509453119060631,0.1875388641314154,68.21316614420063
0.8709871552029586,0.9213060525603971,0.0001065080576755242,0.9591733870967742,0.08067193356015477,0.058394898230447,62.55386232264845
0.7224008317886248,0.8919019000592829,0.0001090429526938389,1.00635593220339,0.05074252060168426,0.05860721827968598,59.62105263157894
0.4155104847252119,0.7476466270369185,0.0004325084336594007,0.8922574626865671,0.1428777460538997,0.1671837386294529,67.24516466283325
0.9390042284846681,0.9611679088205995,0.0001353346389793533,0.9153846153846154,0.07120255609234011,0.05454781267097242,65.54621848739497
0.6415311884163776,0.9072268632852168,0.0001417680651627577,1.004766949152542,0.04560009163142136,0.07011766588360965,59.71534001054296
0.562237408121995,0.9050951649984613,0.0001427008843758424,1.021012931034483,0.04240065524902849,0.06788733087242756,58.76517150395779
0.7245758182544203,0.9468770227734981,0.0001526941019718731,0.9800204918032787,0.05457806289104129,0.05818433351570392,61.22320961840042
0.5893872001723227,0.9120283369139246,0.0001519705746656678,1.01218220338983,0.0434451200305294,0.05946284336776463,59.27786499215071
0.5104015139459931,0.909109463801541,0.0001500973693070911,1.015360169491526,0.07980147867224238,0.1054961849694265,59.0923317683881
0.50618793157581,0.9056607873540464,0.0001552843618709317,1.028556034482759,0.07042543199871555,0.09556001260345212,58.33420639078051
0.5623036490983196,0.9050604106533042,0.0001581513530273734,1.01271186440678,0.06199975761228115,0.08124171045246019,59.24686192468619
0.6810103404618155,0.9287576141915214,0.0001600274276102517,0.9963541666666667,0.07948640202977418,0.08217772183567573,60.21955044432828
0.5450265027806964,0.9040372633202443,0.0001531797348479071,1.030172413793103,0.07082619278084044,0.09310818316308092,58.24267782426779
0.5725345680432811,0.901860919816367,0.0001556939965592483,1.040021929824561,0.04710447702633901,0.07857016029820554,57.69109119662625
0.5153825234549751,0.8951640852082007,0.0001579484478365357,1.05859375,0.0487219828488457,0.08656152567551434,56.6789667896679
0.5328017880651565,0.9059706053320716,0.0001577422889907744,1.032327586206897,0.06302727937883516,0.088775169398624,58.12108559498956
0.5263637201991285,0.8950990074736557,0.0001548762339849517,1.029094827586207,0.08244766923874385,0.09609636861715176,58.30366492146597
0.2241904126800019,0.8319019076130235,0.0009601065105920684,0.8875932835820896,0.1677276679299456,0.2106172161586612,67.59852863899107
0.5291999089457056,0.7956132634328069,0.0003744190289394079,0.9637096774193549,0.1794468100811019,0.1885642610167337,62.25941422594142
0.1536559233037403,0.746732416933533,0.00101044699958518,0.9854166666666667,0.1687178467310307,0.1886879738696954,60.88794926004228
0.4832570803551459,0.770001579505971,0.001428625512851283,0.8605072463768116,0.1932672596254787,0.2648398864241874,69.72631578947367
0.5390946709200719,0.7760771583633403,0.0008845397495521734,0.82421875,0.1741825448179893,0.2235391248012334,72.79620853080569
1.202621625145846,0.898005492522564,0.0005919194179569628,0.8276909722222222,0.1941802637096071,0.2514263885777295,72.49082328264289
1.148373611517068,0.8212677247556023,0.0006134138721570659,0.8722426470588235,0.203706414368222,0.2841886280377351,68.7881981032666
1.050755175443056,0.8052644242917003,0.0006648199993658198,0.85,0.1866498584056713,0.2594183764148931,70.58823529411765
0.6451122935196657,0.7618874546535291,0.0009105967850109101,0.8389084507042254,0.1686250749873846,0.2510580290063861,71.5215110178384
0.4683202280164931,0.8011969990242189,0.0003350380491077679,0.9723360655737705,0.1329561193886199,0.1400451006223828,61.70706006322445
0.6340852069166034,0.904306390351265,0.0001585880907876115,1.046052631578947,0.1010677072087975,0.117670137081225,57.35849056603774
0.498472864177527,0.855110531223202,0.0002068031368942235,0.9901041666666667,0.1709246135707364,0.1863044511463673,60.59968437664387
0.3122391851092179,0.678044917355731,0.0003473029891790647,0.9958333333333333,0.1447279536079867,0.1363370504065543,60.2510460251046
0.521584696899968,0.7701765102132229,0.0006005982019266907,0.8630514705882353,0.1441081507600608,0.1900096349678011,69.52076677316295
0.7838021941817235,0.9186394828846149,0.0001323661875833661,1.026400862068966,0.07312714688353295,0.07228738485221284,58.45669291338583
0.6084133599355025,0.8652130884783048,0.0001421155205219627,1.09837962962963,0.0562266564883848,0.07630546235300367,54.62592202318231
0.4927589845132345,0.8573294440088631,0.0001406458875595299,1.100115740740741,0.0474995544073389,0.07118335181397191,54.53971593897948
0.5201350361492072,0.8773854278248209,0.000140789776689929,1.078977272727273,0.04373154864748604,0.06777507394424699,55.60821484992102
0.5487087940842236,0.8684650239489548,0.0001440702857939585,1.088068181818182,0.07103409000014543,0.08950658857396002,55.14360313315927
0.5093983223822246,0.858966679929641,0.0001440084673762196,1.122051886792453,0.03755113992474211,0.06204764182278993,53.47346295323173
0.5086939318171317,0.8750141199357638,0.0001450764537062348,1.103009259259259,0.05661840189182873,0.08099106053628667,54.39664218258132
0.5128983138022178,0.8643810723398854,0.0001437448867762498,1.103587962962963,0.05339462965018214,0.07144173143594743,54.36811746198217
0.2886717637102131,0.7842993669854104,0.0005013038922386057,0.9880208333333333,0.1856761702291714,0.2586237717160009,60.72746441750132
0.7038840515950714,0.9150099701059182,0.0001443674018439847,1.028556034482759,0.1049817312011895,0.1451070574232525,58.33420639078051
0.5925073844697675,0.8530151613410063,0.0001502712829286607,1.097800925925926,0.06422568317092696,0.09854109740285263,54.65471797575119
0.3758579922041426,0.7953029136041521,0.0002609429896048842,1.049890350877193,0.1500250857498933,0.1659384668387222,57.14882506527415
0.7805107853943115,0.6935825489579682,0.0002919359766622047,0.8871268656716418,0.11704580661177,0.1626983783281384,67.63406940063092
0.7812447471481688,0.9225318876751488,0.0001575210993274231,0.9713114754098361,0.09023376580452458,0.05575593204613598,61.77215189873417
0.5213239141767496,0.8779777505292194,0.0001469299769658221,1.069196428571429,0.04930964739815741,0.07286253401876965,56.11691022964509
0.4956400505070278,0.8735076799986379,0.0001479497220157279,1.096064814814815,0.04953920036813124,0.06410095773870206,54.74128827877507
0.5532306392820145,0.8992333138583342,0.0002434544778901673,0.9932291666666667,0.1490084050458415,0.1781291814852642,60.40901940220241
0.5071261676515716,0.872340400782446,0.0001353916826101059,1.0875,0.07283816120189146,0.08910157930803014,55.17241379310345
0.4654491179151222,0.865415015419756,0.0001363664010705582,1.110849056603774,0.04273849121325501,0.07067880013456325,54.01273885350318
0.4554739710953107,0.8748335041528545,0.0001385322949208876,1.116745283018868,0.04508203974909263,0.06427760556308143,53.72756071805702
0.4805029457387256,0.8500152473280859,0.0001407260661639307,1.09837962962963,0.07473124285813855,0.09511583677632436,54.62592202318231
0.1894194995440446,0.7258365966415539,0.0009334901252669608,0.9672131147540983,0.1772674234544158,0.1717802769286005,62.03389830508475
0.2848764928136596,0.8000425050234956,0.0006564267379921667,0.9019886363636364,0.184467776769609,0.1943075105441016,66.51968503937007
0.2922833450447876,0.8168635743978981,0.0003451881640201233,1.032866379310345,0.1700206010306446,0.166700928495925,58.0907668231612
0.452289294268077,0.8056443647886998,0.0002308107487632678,1.043859649122807,0.06822960169343881,0.07912308872663439,57.47899159663866
0.4145031774955283,0.8210205376021419,0.0002409457184218354,1.038925438596491,0.09073754765604035,0.07999982561364923,57.75197889182058
0.4730963899112738,0.7588889065702777,0.0005297845559147499,0.8982007575757576,0.1804474301210878,0.2522435388362116,66.80021085925145
0.8577366332263613,0.8539764338644139,0.0001906783848421965,0.9129807692307692,0.1154386892524831,0.1410583600411546,65.71879936808847
0.7084502697647294,0.8480948345956798,0.0001971641539697112,0.93310546875,0.1539743650328855,0.2412275361693793,64.30141287284144
0.3215291701954539,0.6366549020362575,0.0005230004131692634,0.9029356060606061,0.1733219728427046,0.2318210205674263,66.44992134242266
0.7120888476768068,0.8031139328332053,0.0002551471664200759,0.9057765151515151,0.0976906074777457,0.1004796190585625,66.2415054887611
0.6591842507858181,0.8903311699639325,0.0001463638277513326,1.058035714285714,0.04436296186239239,0.07431027550382616,56.70886075949367
0.5543762149718406,0.8940773863879543,0.0001480842025593083,1.100694444444444,0.04606423319938055,0.07335057330228295,54.51104100946372
0.5246524708200423,0.8910945732895573,0.0001472220996435773,1.095486111111111,0.06815203620274488,0.08952755320580848,54.770206022187
0.4970971383609047,0.8847824596649893,0.00014767450936137,1.095486111111111,0.04097369347640954,0.0730989410913677,54.770206022187
0.4778449134318297,0.8941374288453735,0.0001473704243552619,1.105324074074074,0.08318047967051366,0.1087626049949293,54.282722513089
0.4531649937654876,0.896409248685243,0.0001457767219565068,1.108217592592593,0.04240362292065363,0.0700088437809622,54.14099216710183
0.4211926368665755,0.8889432213833349,0.000142975593362371,1.11438679245283,0.06564700782885273,0.09141729264330009,53.84126984126984
0.4658553293535495,0.9024170505316551,0.0001494590214963659,1.0875,0.1078258802632534,0.1148985563039882,55.17241379310345
0.4537450483046753,0.8923394282323953,0.000148752179546606,1.115566037735849,0.04525905910942333,0.07617765325716742,53.78435517970402
0.4154128683150999,0.8828500253412881,0.0001486477973652339,1.137620192307692,0.04123051668039401,0.06446066782215673,52.74167987321712
0.4122495046083171,0.8952928066462403,0.0001491337582035023,1.104166666666667,0.0804627099045588,0.1038221504068103,54.33962264150943
0.4317712376753205,0.898660829150489,0.0001497668261207941,1.137620192307692,0.04835780330357897,0.07256568187700375,52.74167987321712
0.5121469808881254,0.9133767163275242,0.0001488854693989726,1.069886363636364,0.1614436421379822,0.1236179383258187,56.08072225172597
0.4437213479478193,0.8913038348149623,0.0001485724148626004,1.124410377358491,0.04721401230935756,0.07896186396950405,53.36130047194546
0.3901631258583479,0.8774023412371601,0.0001473429313365499,1.125,0.08712859180219752,0.1085130874329487,53.33333333333334
0.3920376556528816,0.8771253993669136,0.0001479307602181212,1.137019230769231,0.05169666626828501,0.07348344151215692,52.76955602536997
0.4353701070186035,0.8826444298313789,0.0001488046227267307,1.125,0.06453068964190897,0.08514163821358095,53.33333333333334
0.4460987072637709,0.8837028554482008,0.000149995711114177,1.141225961538461,0.05253861353839652,0.07096477136234432,52.57503949447078
0.4548713108061908,0.8921948380918159,0.0001494057005049519,1.120283018867924,0.06202538733377894,0.08188087178005335,53.55789473684211
0.5323344788574798,0.8900199710554948,0.0001508810016256344,1.141826923076923,0.06412008975167856,0.08630575066610113,52.54736842105263
0.5781671530484049,0.8856757012373105,0.0001483951587994172,1.123231132075472,0.07269834366960028,0.09048812608037843,53.41732283464567
0.5702272683070357,0.8866574433137758,0.0001497477075384575,1.140024038461539,0.05862071002048861,0.08541367761388928,52.63046916183447
0.579830412554812,0.8925427901287973,0.0001493121985676279,1.118514150943396,0.05373659146256814,0.0704125890186385,53.64259356879283
0.232606837540551,0.5631012362919888,0.0007395206556566059,0.9409722222222222,0.1853473578921518,0.1287859134064572,63.76383763837639
0.2676811810851539,0.7263083528507834,0.0006142095029439148,0.9864583333333333,0.1370929897814699,0.1375457358450364,60.82365364308342
0.6136655227299583,0.8894691419997246,0.0001471171893417118,1.11497641509434,0.06093971781935956,0.073031045821939,53.8127974616605
0.5638008851948466,0.8978657968956264,0.0001527995809126299,1.135817307692308,0.03293795578376135,0.05269251583944532,52.82539682539682
0.8269844515435931,0.7584236975748613,0.0002812022094057371,0.9611895161290323,0.1939162173875483,0.212061082388859,62.42265338227583
0.7343093236688606,0.858448944733703,0.000198587409188427,0.9901041666666667,0.1876294402742781,0.1908684018428244,60.59968437664387
1.247091997061125,0.9381409259419967,6.496659090184354e-05,0.8259548611111112,0.1674644309580151,0.2490629445584242,72.64319495533368
1.394479857427744,0.9371209140624184,6.873800542847949e-05,0.8002533783783784,0.1540227721692304,0.2352224974097317,74.97625329815303
1.00660313870467,0.8478592560054098,9.677477531684571e-05,0.8220486111111112,0.188195965937884,0.2827133293364624,72.9883843717001
1.399424210451958,0.9265484765194097,6.360829336202643e-05,0.7719155844155844,0.1467540548477924,0.2049513039884815,77.72870662460568
1.3556709743942,0.9269821376435975,6.358356300900082e-05,0.8015202702702703,0.1634677873298637,0.194641398403841,74.85774499473129
0.621506722311269,0.7811442338348876,0.0001568290211485682,0.8019425675675675,0.1694022856116015,0.2383860544555912,74.81832543443917
1.329508708882275,0.9242589260173594,6.288897468417915e-05,0.809931506849315,0.1506046447069892,0.2062723577949255,74.08033826638479
1.058368844701817,0.8856761329552871,9.210834184051558e-05,0.7943412162162162,0.1390923192251813,0.2011312186690263,75.53429027113238
1.062241347210934,0.8686533962936791,9.532300023255429e-05,0.8207465277777778,0.1639585530126417,0.212045132470013,73.1041776837652
1.260565680912878,0.9249208480195771,6.473130261981116e-05,0.8495535714285715,0.1696316960614185,0.2397998391624124,70.62532842879664
1.296984803349573,0.9270538500875573,6.150787419026769e-05,0.8298611111111112,0.1425303871650958,0.187059341341454,72.30125523012552
1.278976078879715,0.9331544545463673,6.233010034812892e-05,0.8133561643835616,0.1559477043854646,0.2283068624406634,73.76842105263158
1.314116208189576,0.9268025456109366,6.45692036830493e-05,0.8167808219178082,0.1591187898701326,0.2245329353624987,73.45911949685535
1.309785222486504,0.9270452305114141,6.381370186264013e-05,0.829225352112676,0.1525378569666383,0.2269508678735806,72.35668789808918
1.300648674766961,0.9322730907765407,6.18301964006425e-05,0.8314260563380281,0.1522352955176589,0.2217586465539249,72.16516675489677
1.323871274315074,0.9323914553151809,6.307632870473868e-05,0.815068493150685,0.1507821915256939,0.2170069443333298,73.61344537815125
1.355658528053275,0.9391592301620861,6.321715720149003e-05,0.8397887323943662,0.1828148193744157,0.2380222172253194,71.44654088050314
1.313667889686163,0.9336042440309719,6.390660644743972e-05,0.8428697183098591,0.1693839025473618,0.2393373478407174,71.18537859007833
1.307741596607508,0.9297995865672579,6.346937092785162e-05,0.8541666666666666,0.158066136100186,0.2076005802475457,70.2439024390244
0.4875460322010051,0.7860824061052036,0.0001937030835605362,0.796875,0.160355687046775,0.22632434637103,75.29411764705883
1.110744011168851,0.9362130385965407,6.644535588606048e-05,0.8129280821917808,0.1893101231809534,0.259294457039461,73.80726698262244
1.198062538648614,0.9395206795678482,5.122230323405463e-05,0.8486607142857143,0.1767479441975527,0.2617267769967404,70.69963177275118
1.270923729642837,0.927029291932694,5.234587603030414e-05,0.8658088235294118,0.1729211829429252,0.1947823962861764,69.29936305732484
1.162543671374593,0.9270741287951714,5.294035616997567e-05,0.8397887323943662,0.1718793675393213,0.2526091525035691,71.44654088050314
1.200920747471942,0.9315925239210582,5.356652774141251e-05,0.7916666666666666,0.1580589728199221,0.2323249304547637,75.78947368421053
1.188031407633499,0.923869162520732,5.372749982628032e-05,0.835387323943662,0.1723610881216306,0.2630786564210136,71.82297154899895
1.169605428373707,0.9225760633499906,5.269099036225546e-05,0.8371478873239436,0.1604553356827305,0.2037935426742327,71.67192429022083
1.203492999056041,0.924771905025933,5.185289049883564e-05,0.8415178571428571,0.1656394391087621,0.2229475632116866,71.29973474801061
1.128582704954979,0.9266498524153426,5.220343837513378e-05,0.8358274647887324,0.1608665114067072,0.2199266821822998,71.78515007898895
1.175450464006613,0.9421795647353797,5.400920925410426e-05,0.8526785714285714,0.1622201279063704,0.2382603674919337,70.36649214659685
0.6032436019655518,0.8196777195100226,0.000144745438505478,0.8298611111111112,0.1752268563776331,0.2433931117887217,72.30125523012552
0.6427733503846611,0.822001998423788,0.0001513284544900548,0.8233506944444444,0.1751704064168373,0.2478172760094267,72.87295730100158
1.409517828194104,0.9388210853464585,5.402968273967187e-05,0.8311631944444444,0.1520850922256864,0.2266250975932607,72.18798955613578
1.433085590928943,0.930081544945303,5.151395164121062e-05,0.8433098591549296,0.1855453394763356,0.2744210626807956,71.1482254697286
1.58187550979563,0.9157777371666371,4.354392296939111e-05,0.8549107142857143,0.1861585731291734,0.2485237209102432,70.18276762402088
1.584356422514912,0.9000409990349704,4.369173303208357e-05,0.8177083333333334,0.1760077630074563,0.2418340645747253,73.37579617834395
1.549345064094701,0.9069529571381706,4.293633068875876e-05,0.8577898550724637,0.1717853217860549,0.2281023356992878,69.94720168954593
1.523884238085311,0.9207049535797769,4.028085006132739e-05,0.8057432432432432,0.1446058422627122,0.2064483790664826,74.46540880503144
1.580561988932246,0.9185042634381602,4.004696899826124e-05,0.8318661971830986,0.1497656433961962,0.2194186210192745,72.12698412698413
1.551327909102549,0.9146683869636942,4.012070729419269e-05,0.8986742424242424,0.1658116627935607,0.2324682050220069,66.76501580611169
1.546930143886514,0.9201797898231628,3.904114170334334e-05,0.8389084507042254,0.1560868767629094,0.2036908327763988,71.5215110178384
1.547395759142571,0.9185185292477338,3.951677876215903e-05,0.8142123287671232,0.1602560433713581,0.2371365091215044,73.69085173501578
1.624401289388474,0.9170913817795534,3.944357823767174e-05,0.8482142857142857,0.173292508110844,0.2715726392138302,70.73684210526316
1.603373515045562,0.9230586774868662,3.978964215970945e-05,0.8259548611111112,0.18003260857406,0.2729859828470794,72.64319495533368
1.578621038499186,0.9111750359257265,3.961124520070284e-05,0.8491071428571428,0.1688633406222986,0.2379631734539819,70.66246056782335
1.639491977215504,0.9138640882159519,4.013141412529922e-05,0.8513392857142857,0.1549441606544705,0.228744258263253,70.47718930256949
1.62694614152599,0.8987594343423474,3.919292616982578e-05,0.8759191176470589,0.1861139477478254,0.2471561666415694,68.49947534102833
1.667328104401306,0.9052486181140079,3.574197905046086e-05,0.8623188405797102,0.1643566282181387,0.2221376345342468,69.5798319327731
1.697435109959822,0.9057582211189812,3.617201631550344e-05,0.8791360294117647,0.1985054749662774,0.253990998342079,68.24882383690539
1.675114515538854,0.903900986738276,3.52583859616384e-05,0.8198784722222222,0.1846200301795535,0.2745935697009796,73.18157755426151
1.688931734192011,0.9172974014413866,3.432242096489393e-05,0.8596014492753623,0.1657546823110724,0.2243249677955412,69.79978925184405
1.747209561076502,0.9045250753283861,3.474979019268105e-05,0.8754595588235294,0.2024162299964651,0.3014608013304648,68.53543307086613
1.777143115281082,0.91545291832427,3.517833034884707e-05,0.828125,0.1719538960335331,0.2233236653537691,72.45283018867924
1.790189923408976,0.9155597893846181,3.310927241882843e-05,0.8600543478260869,0.1601071644603426,0.2435401623177678,69.76303317535546
1.765610414681184,0.9064153846738717,3.327189302960874e-05,0.8371478873239436,0.1821353658947682,0.2499441901991037,71.67192429022083
1.802471212012646,0.9165058428456552,3.155923806632025e-05,0.8609601449275363,0.1991075133027435,0.3080799543496117,69.68963703314046
1.663639277122485,0.9146837395762288,3.210081191314709e-05,0.8375880281690141,0.1854064249887199,0.2774294070441292,71.63426169206515
1.798292242167047,0.9167521842944083,3.230440053271366e-05,0.8268229166666666,0.1509462252337778,0.2215614105090518,72.56692913385827
1.795074023140956,0.9216676661447479,3.080856626938293e-05,0.8276909722222222,0.1767761624764157,0.246286236341513,72.49082328264289
1.785288545227335,0.9196718533129292,3.161288482136302e-05,0.7979166666666667,0.1394122085360134,0.2041456943631852,75.19582245430809
1.737289532993324,0.9258336972794039,3.14760217341882e-05,0.8573369565217391,0.1543341109440235,0.2443055509109082,69.98415213946117
1.757253337168909,0.9188924390916091,3.081156181253756e-05,0.8596014492753623,0.1677914256871652,0.2309803177093616,69.79978925184405
1.809682285529187,0.9157880550870627,3.057615018283766e-05,0.875,0.1840210336043778,0.2477451955194794,68.57142857142857
1.778725448432376,0.9130919376005585,3.133551443251004e-05,0.8654891304347826,0.1843258153987994,0.2394067710447197,69.32496075353218
1.803355571095427,0.9225681618229035,3.145157815373952e-05,0.840669014084507,0.1764772696862952,0.237670286696868,71.3717277486911
1.757057051387688,0.9164670573117549,3.145555930142145e-05,0.8857276119402985,0.1825810172416172,0.2580383824514908,67.74091627172196
1.775267550854831,0.9310064759020015,3.244042622329487e-05,0.8455357142857143,0.1802067973077552,0.2346088808906296,70.96092925026399
1.74211658781828,0.9281759195974901,3.380515639219176e-05,0.8090753424657534,0.1634522975368906,0.2259180249405867,74.15873015873017
1.652392528659973,0.9288805243808012,3.464271459998458e-05,0.8986742424242424,0.1955394973358719,0.2704107897113348,66.76501580611169
1.632460707283221,0.9304459627695612,3.243146584767383e-05,0.8754595588235294,0.1831991925106933,0.2281112626205211,68.53543307086613
1.713777951929096,0.9241364995607748,3.296447448161146e-05,0.8614130434782609,0.1936987324695298,0.263398977104517,69.65299684542587
1.687911584323021,0.908992881422727,3.385771945186192e-05,0.8553571428571428,0.1813862963964152,0.2659378485879628,70.14613778705638
1.642042460007019,0.9076469265174667,3.538811723713855e-05,0.8713235294117647,0.1781144710965783,0.2518298240105687,68.86075949367088
1.710247314937327,0.9237513161698281,3.460323128059024e-05,0.8477678571428572,0.1739061339663511,0.2365613602723679,70.7740916271722
1.695443281765357,0.8948895183125793,3.374283570002351e-05,0.8362676056338029,0.1921707552201236,0.2782578936115611,71.74736842105263
1.635089540915626,0.900764782414412,3.464977820423354e-05,0.8731617647058824,0.1979968005381814,0.2590761517881821,68.71578947368421
1.661800915861374,0.9179096655912361,3.371992103432996e-05,0.8736213235294118,0.1923718944090908,0.29486134643151,68.67964229352972
1.693576637718949,0.9226965287372104,3.318295011087547e-05,0.8411091549295775,0.1531601604208187,0.2260269223850494,71.33437990580848
1.662451820287036,0.920054756663603,3.259297858628602e-05,0.8311631944444444,0.1965177895172342,0.2906772916003462,72.18798955613578
1.729741658815337,0.9207690479508418,3.247753548871066e-05,0.8345070422535211,0.1717564705088989,0.2538487228786918,71.89873417721519
1.652315631165258,0.916360917675712,3.100796790089155e-05,0.8349471830985915,0.1759330554275264,0.2508912684240497,71.86083289404323
1.699652772817804,0.9230353588871599,3.351790372778222e-05,0.8517857142857143,0.1800364015063258,0.2345183740213615,70.44025157232704
1.71369338605083,0.9275953466102133,3.128386205152979e-05,0.8203125,0.1807036485346934,0.2624014737967457,73.14285714285714
1.726227354749691,0.9316073210333506,3.156672092873427e-05,0.8910984848484849,0.1813416063111896,0.259871223656286,67.3326248671626
1.651445096143789,0.9147305964195793,3.333267368285561e-05,0.8917910447761194,0.1801520688331905,0.2548650675387177,67.28033472803348
1.683120521902501,0.9267276373307688,3.254661393343183e-05,0.8875932835820896,0.1708274301385042,0.2215059083280679,67.59852863899107
1.748718660438072,0.9326114381985534,3.165505264880324e-05,0.8367077464788732,0.1676064197667688,0.2432400801824051,71.70962651236191
1.71643436880788,0.9282011911941549,3.367707875427552e-05,0.8246527777777778,0.1824073706876256,0.263212689463039,72.7578947368421
1.689262750692991,0.9324783582567072,3.80076469584325e-05,0.8513392857142857,0.1933922182089432,0.2800143953338879,70.47718930256949
0.8980698632002198,0.9019002099895058,8.367695599610052e-05,0.875,0.1802872655911348,0.2347692391348138,68.57142857142857
0.9883237918249378,0.9177470671762227,8.540559056897904e-05,0.8535714285714285,0.172182586553475,0.2278142736904372,70.2928870292887
0.4030832942716406,0.7602121713294652,0.0001593002288309899,0.8600543478260869,0.1874704608111598,0.2866365310268697,69.76303317535546
1.264348155660912,0.9295052229394402,4.23047135995593e-05,0.8991477272727273,0.171145616147925,0.2394090782129392,66.7298578199052
1.194395516443641,0.9287509992393065,4.388575151516677e-05,0.8857276119402985,0.1768222225269545,0.2386448185731636,67.74091627172196
1.185695323611778,0.9262161027147532,4.444893158938751e-05,0.896780303030303,0.1920201443186381,0.2785392873822015,66.90601900739176
1.180155660378392,0.9336461542040272,4.532363807959467e-05,0.8763786764705882,0.1826450043028215,0.2456477501712139,68.46355532249606
1.217553474251192,0.9377015650022039,4.394357364311619e-05,0.8486607142857143,0.1796446543860679,0.2337627873740163,70.69963177275118
1.148300236374725,0.9366538683126469,4.346078164479316e-05,0.8535714285714285,0.1834794273347888,0.2656982529001704,70.2928870292887
1.253433943433535,0.9335062046259764,4.581698828191322e-05,0.8591485507246377,0.1717924858260844,0.229889679424463,69.83658408012651
1.175411527671622,0.925878371231189,4.572788529466303e-05,0.8722426470588235,0.1847014879523622,0.268361399022055,68.7881981032666
1.214259779263155,0.9369816199952355,4.568710131869378e-05,0.8349471830985915,0.1562221012585688,0.2137176249500394,71.86083289404323
1.19132305846839,0.9309861093542241,4.548186137572092e-05,0.8699448529411765,0.1794864039459506,0.2297665711952154,68.96988906497623
1.154832043842956,0.9390591078233858,4.545054674770967e-05,0.8639705882352942,0.1600426386741097,0.2357160019644181,69.44680851063829
1.167352710604185,0.9363309300290386,4.515853875896336e-05,0.8645833333333334,0.1890535478676681,0.264812772025711,69.39759036144578
1.141393805981493,0.9325314103905209,4.508651381776887e-05,0.8491071428571428,0.156158136260677,0.2132459732531793,70.66246056782335
1.132800530543846,0.9291397027431186,4.486413951671503e-05,0.8509963768115942,0.1802763804729774,0.2799961839944798,70.5055880787653
1.155330900761811,0.933105694460645,4.529452283810639e-05,0.8272569444444444,0.1684452802894005,0.2413216433794952,72.52885624344177
0.634578477415819,0.7327108484277313,9.565016030561947e-05,0.8389084507042254,0.1596589302641498,0.2248201165853015,71.5215110178384
1.01342618853767,0.9367394009885535,6.038942461332689e-05,0.8653492647058824,0.1372927658896703,0.1793144854759161,69.33616569304301
0.9951266212797092,0.9495934117250127,5.438932600900175e-05,0.8815298507462687,0.1615732501180473,0.219526489824915,68.06349206349206
1.009961823326597,0.9490194712522064,5.466675372570079e-05,0.8768656716417911,0.1735212540659172,0.2279257899398332,68.42553191489361
1.007326136718786,0.9499484939441941,5.509555525467905e-05,0.8754595588235294,0.1720414173495118,0.219979222220998,68.53543307086613
0.9956769982338554,0.9442598795407405,5.533489443599163e-05,0.8810634328358209,0.1455014575456794,0.1996164053385969,68.09952355743779
1.045913748649735,0.9502282588023617,5.501649999233101e-05,0.9038825757575758,0.1773041130999316,0.2460016807322196,66.38030382399161
1.075204000570507,0.9534727049861546,5.5616382094264e-05,0.8513392857142857,0.1574450473051419,0.2085144140570748,70.47718930256949
0.9884713876062494,0.9548556534606141,5.731140766359219e-05,0.85,0.1606175303988596,0.2429369103106902,70.58823529411765
0.989090764830794,0.9476177161723536,5.506943086753669e-05,0.8772977941176471,0.1608081626627132,0.2289404129605937,68.39182818229439
0.9883223204640389,0.950142994783819,5.470508681265715e-05,0.8582427536231884,0.1504427822947697,0.187729638787837,69.91029023746702
1.01805245763987,0.9535691194251329,5.485772987148624e-05,0.878731343283582,0.1754958982035059,0.2414494190709453,68.28025477707007
1.018574446959823,0.9533309494983155,5.421192147518674e-05,0.8736213235294118,0.1493354057335406,0.1987088101502882,68.67964229352972
1.005448581168772,0.9494865650700773,5.471296853895685e-05,0.8459821428571429,0.1413741383795177,0.1933712403492383,70.92348284960421
1.020130049451668,0.9561259007143312,5.439643438899016e-05,0.8314260563380281,0.1520544889035346,0.1749521618288023,72.16516675489677
1.02983346094148,0.9535536147543385,5.358732449125022e-05,0.8349471830985915,0.1501157764197129,0.2056335484545262,71.86083289404323
1.097092572779542,0.9529974485271245,5.310151285879512e-05,0.835387323943662,0.1599438159977975,0.2145970580446726,71.82297154899895
1.066013094752888,0.952868552792197,5.349492663425328e-05,0.8504464285714286,0.1628852624924824,0.2293004385586482,70.55118110236221
1.019484831733403,0.9493746566374524,5.342039442338763e-05,0.8871268656716418,0.1732753522895611,0.2489620974103683,67.63406940063092
1.053727484747032,0.9540021532163893,5.333438218783067e-05,0.8389084507042254,0.1597450556853311,0.1951919270688651,71.5215110178384
1.069662206381176,0.9489520446038626,5.254136185415558e-05,0.853125,0.1517522284491589,0.2133786714447727,70.32967032967032
1.024518903406315,0.9588614885658053,5.463690881294114e-05,0.8411091549295775,0.1705794223158107,0.2418596571361168,71.33437990580848
1.092070177080855,0.9581866935291568,5.495558215255794e-05,0.8509963768115942,0.1535680081887058,0.2003845108931385,70.5055880787653
1.099664903556134,0.9523923332117519,5.414178886021324e-05,0.8815298507462687,0.1680296011723142,0.2641307122315377,68.06349206349206
1.064840084641073,0.9521417767369974,5.265990191221509e-05,0.8455357142857143,0.1409357394455403,0.2028024892294993,70.96092925026399
1.072288912214475,0.9501602720855425,5.211531630244082e-05,0.8667279411764706,0.1545512106691198,0.2157645422365945,69.22587486744433
1.057120650743052,0.9558589189584608,5.390994274504573e-05,0.8424295774647887,0.1752479238946896,0.2611091982157219,71.22257053291536
1.022977566944016,0.9544062431627327,5.395090422282289e-05,0.8345070422535211,0.1512304985206391,0.2198632387417233,71.89873417721519
1.096739069576506,0.9553178494236839,5.290156722857727e-05,0.8358274647887324,0.1589743401627836,0.2078938817556413,71.78515007898895
1.002278721362132,0.9509137323634725,5.674077538553402e-05,0.8433098591549296,0.1584348094531597,0.2295789041142189,71.1482254697286
1.15432140887812,0.937488905617083,6.473061458633385e-05,0.8285590277777778,0.166503261005434,0.2378483823635505,72.41487689889995
0.5974511653488991,0.8860011040025715,0.0001676778633434487,0.8180650684931506,0.1420652526334896,0.2129692531277174,73.34379905808477
0.6565499594325738,0.8752608477938666,0.0001151845555221004,0.8544642857142857,0.148550071438858,0.1989982839850271,70.21943573667711
1.083613772512585,0.8980045840101806,6.77360657280853e-05,0.8659420289855072,0.1674941062392009,0.2446286482639975,69.2887029288703
1.180678748556224,0.9348017826347902,6.19212735529765e-05,0.8641304347826086,0.1796221003351104,0.2529411096742388,69.43396226415095
0.5098626432152265,0.7732239481457239,0.0001552470835128789,0.853125,0.1683982776358306,0.236740777332875,70.32967032967032
0.8461887700315167,0.8924774137207377,6.473376685687546e-05,0.8389084507042254,0.1566147052945575,0.2061079055980144,71.5215110178384
0.2654584837503935,0.4045158030166502,0.0003200723217835504,0.8289930555555556,0.1547648360114906,0.2255604814896864,72.37696335078533
1.103029242808342,0.9325265529479496,4.682763577709263e-05,0.8508928571428571,0.1630803021489094,0.232213767239697,70.51416579223505
1.075362242648563,0.9181894625686072,4.918796274071159e-05,0.8805147058823529,0.1750575319419858,0.2328229080864913,68.1419624217119
0.5030629382483719,0.6515026288487497,0.000105474432950254,0.8362676056338029,0.1670530210380195,0.2462044464754561,71.74736842105263
0.570290657227013,0.6059060776961092,0.0001156737173801801,0.8294270833333334,0.1745326022030579,0.2395769543955862,72.33908948194662
1.154923299134922,0.9460588153181542,5.314963818774601e-05,0.84375,0.1816037188889195,0.2317867351245755,71.11111111111111
1.113154033600219,0.9399724314667937,5.243540879254609e-05,0.8731617647058824,0.1646529425161869,0.2346935024919529,68.71578947368421
1.082749190477809,0.942420986769784,5.17095590740398e-05,0.8504464285714286,0.1562404333806048,0.2116471055379891,70.55118110236221
1.163406406035889,0.9502163536599836,5.046069248333771e-05,0.82421875,0.1528659142474714,0.1923521244715857,72.79620853080569
1.147845791540075,0.9461184857653318,5.05851828994831e-05,0.85,0.1466325887087471,0.1920124283605817,70.58823529411765
1.086987386206423,0.9441369090790396,5.061294423334362e-05,0.8922574626865671,0.1751434964458954,0.2575217885750817,67.24516466283325
1.119296750048859,0.939959146439559,5.086345142391173e-05,0.8740808823529411,0.1479379741423381,0.2117758182642498,68.64353312302839
1.107902562733946,0.9406967436228583,5.069980782505063e-05,0.8927238805970149,0.1611836646750386,0.2297040874756701,67.21003134796238
1.101842597622025,0.9503233712939244,5.111203200497322e-05,0.840669014084507,0.1560434311983517,0.2222299725831008,71.3717277486911
1.072474582717517,0.9406650610627635,5.478598806495744e-05,0.8375880281690141,0.1475686644818504,0.219323228526822,71.63426169206515
1.082107998215242,0.944260250001721,5.209453668581384e-05,0.8482142857142857,0.1393829788601118,0.1900490973940415,70.73684210526316
1.151498549337745,0.9360228191175257,4.66992550868221e-05,0.8875932835820896,0.170229119283114,0.2062155618631762,67.59852863899107
1.08406883964091,0.9100475606718947,5.178818613613995e-05,0.8805147058823529,0.1704857942285428,0.2397320001647362,68.1419624217119
1.081258643288613,0.930744095835765,5.266030988585163e-05,0.8717830882352942,0.1864353741148529,0.2449346927883906,68.82445967316816
1.119284171213382,0.9507394836850045,4.678168442552256e-05,0.8116438356164384,0.1477547250119949,0.1918265297989885,73.92405063291139
1.156849809285717,0.94377366795938,4.706799073915963e-05,0.8522321428571429,0.172940804908937,0.2058846126641913,70.40335254059717
1.165143277447961,0.9384096085721825,4.519242989503053e-05,0.8663949275362319,0.1597775764102882,0.222363794645436,69.25248301097751
1.136114661246888,0.9424820475782584,4.644623979169482e-05,0.8824626865671642,0.166246418734468,0.2317242781809555,67.99154334038055
1.100710215198074,0.9452109050718553,4.805006937281197e-05,0.8582427536231884,0.1601929767579169,0.2361148656468113,69.91029023746702
1.129094647330902,0.9506578781905913,4.774517941731251e-05,0.8513392857142857,0.171035752505738,0.2410947912534927,70.47718930256949
0.6258976602733294,0.8532602409684257,0.0001038553631684792,0.8982007575757576,0.1767189828539686,0.2638586633612193,66.80021085925145
1.061145739863587,0.9308026963916519,6.831701595006447e-05,0.8255208333333334,0.1543064892398495,0.2249498672631085,72.6813880126183
0.7570749113050148,0.9227880746000341,0.0001017160919531001,0.8582427536231884,0.1510998804120424,0.2187171719064708,69.91029023746702
0.6666359435541979,0.806832482187787,0.0001362520712808457,0.8564311594202898,0.1686072632191447,0.2267763316477014,70.058170280275
1.472485912888102,0.9337168182591903,4.683090399266164e-05,0.8424295774647887,0.1478309856638881,0.2121123038965107,71.22257053291536
1.411598173857899,0.9327694316131243,4.835102278702707e-05,0.8847947761194029,0.1596376197419962,0.2228046837104941,67.81233526620981
1.406886862401792,0.9275725967295156,4.983731936296819e-05,0.8553571428571428,0.1651206462139803,0.2476680186535357,70.14613778705638
1.452155828586799,0.9236053127287603,4.91689386201871e-05,0.8745404411764706,0.1684989832962329,0.2432927207044247,68.60746190225959
1.353729156508972,0.8424205629655372,5.826076196770288e-05,0.8577898550724637,0.1549800046896443,0.2072890493972125,69.94720168954593
1.455154780969109,0.9128598846574989,5.307167450698964e-05,0.8181423611111112,0.1477117114469663,0.205288786628722,73.33687002652519
1.155191613779582,0.7653112650424684,7.504902727017186e-05,0.8302951388888888,0.1590739931254308,0.2236928973480018,72.26346053319394
1.19519648459011,0.7032524975422028,7.66497971651035e-05,0.8786764705882353,0.1601112438345575,0.2473919464868797,68.28451882845188
1.26845299641136,0.7933963733635742,6.417470875000298e-05,0.8596014492753623,0.1602851417460966,0.2182241578932894,69.79978925184405
1.206708547778172,0.7491456341581249,6.626698182765854e-05,0.8690257352941176,0.1914607217614112,0.3007104460906865,69.04283447911158
1.27419295601447,0.7583259541381574,6.928856556493312e-05,0.8639705882352942,0.1529771857354434,0.2103255184090363,69.44680851063829
1.24764184486303,0.7418599430620796,6.832968072396346e-05,0.8482142857142857,0.1517463184168276,0.2071524503382942,70.73684210526316
1.17574379887872,0.6919975730303529,7.310277303848683e-05,0.8913246268656716,0.1731409626237927,0.2521510208399047,67.31554160125589
1.363083905107004,0.7732121563887003,6.303001038166079e-05,0.865036231884058,0.1590325385728711,0.2266179572086285,69.36125654450262
1.45432089334659,0.8339043979385369,5.405569006104938e-05,0.8411091549295775,0.1500757656797269,0.2366408331809441,71.33437990580848
1.394584782091334,0.7973505675654298,5.721116825132015e-05,0.8614130434782609,0.1465251055928578,0.2063168340911903,69.65299684542587
1.125271740562575,0.8327004628169037,8.069327621690781e-05,0.9043560606060606,0.2028063342346419,0.2609385795693928,66.3455497382199
1.343826543265849,0.80908870598847,5.871575208259624e-05,0.900094696969697,0.1626728845205663,0.2153234373966469,66.65965281430826
1.458845423924706,0.8650978600302595,5.470019338139784e-05,0.8285590277777778,0.1658503000797852,0.243985756337895,72.41487689889995
1.391414011753257,0.8863366266982807,5.417109986810162e-05,0.8763786764705882,0.1948198804846975,0.27979515928035,68.46355532249606
1.363780093822988,0.7811012420167889,6.252888600594151e-05,0.8287852112676056,0.1668383468254053,0.2305188731814754,72.3951141795008
1.236405557159416,0.7537207997871117,6.50418872671859e-05,0.8573369565217391,0.1529523632036387,0.2094600354096779,69.98415213946117
1.310817057950324,0.7747730414390585,6.347814869410133e-05,0.8568840579710145,0.1659068217824923,0.2417349305632344,70.02114164904863
1.289602601630035,0.7729920301574498,6.354306009595418e-05,0.8745404411764706,0.1574852503031337,0.2190496348714451,68.60746190225959
1.30849095602362,0.7899392779881116,6.112696761576053e-05,0.8768382352941176,0.1625461572721565,0.2429029964237613,68.42767295597484
1.336031285153745,0.7931883122249347,6.236989092960499e-05,0.8782169117647058,0.1525423814325378,0.2148506401541007,68.32025117739404
1.304606432942645,0.7695348699936958,6.193296922644762e-05,0.8875932835820896,0.1453832931684438,0.1922919847168978,67.59852863899107
1.258484235783106,0.7320745907939606,6.726028771165451e-05,0.8782169117647058,0.1604347431499189,0.2231696383919641,68.32025117739404
1.27753432933482,0.7173329440885274,6.807949941973159e-05,0.8677536231884058,0.1751798480235075,0.2564091148753813,69.14405010438414
1.374522174869597,0.7632007287494279,6.181398750111225e-05,0.8482142857142857,0.1421578868579523,0.221002891564138,70.73684210526316
1.251567193424298,0.7081817283353179,6.705313752607394e-05,0.8600543478260869,0.1619528741929493,0.2057941151512413,69.76303317535546
1.275034473351289,0.7725065883794007,6.61626708913827e-05,0.8915719696969697,0.1698807946876163,0.2192987622294859,67.29686670207116
1.251058038484214,0.7475342910296038,6.563268981506882e-05,0.8428697183098591,0.1483450954958307,0.1937931979493309,71.18537859007833
1.253363235189243,0.7529987877867492,6.549783855496256e-05,0.8648897058823529,0.1485647844818845,0.2149184698764391,69.37300743889479
1.246680931067879,0.7326939711742547,6.722389814303224e-05,0.886660447761194,0.1508715952359928,0.2085344673022431,67.66964755391899
1.251101651160657,0.707049094259045,6.985589451998822e-05,0.8736213235294118,0.1606399683609685,0.2035998324926737,68.67964229352972
1.278600627330204,0.752746066547395,6.854348462270386e-05,0.8838619402985075,0.1605114742468337,0.2305399623545216,67.8839050131926
1.224694246225376,0.7312960607078591,6.664201353468538e-05,0.8627717391304348,0.1627904135086239,0.226300875820353,69.54330708661418
1.334072765913666,0.7466408364725997,6.360052040532e-05,0.8857276119402985,0.1569064790105597,0.2229374636291396,67.74091627172196
1.242846217417948,0.7369021682766106,6.571652412934785e-05,0.8464285714285714,0.1562270391292815,0.2330958451093592,70.88607594936708
1.224416343729626,0.7199640224043781,7.087988489053419e-05,0.8541666666666666,0.1525064839834845,0.2032310243656364,70.2439024390244
1.276379034161108,0.7868349523466718,6.508390433347315e-05,0.8535714285714285,0.1417900997882404,0.1861743597011815,70.2928870292887
1.303358551471804,0.7652599256907162,6.274222223675887e-05,0.8871268656716418,0.1559189799481976,0.2358382354400035,67.63406940063092
1.327626688271678,0.7944969467988353,6.056666130567009e-05,0.8843283582089553,0.1603487524266005,0.229059031196605,67.84810126582278
1.340627404636076,0.7417462450019663,6.418618476567489e-05,0.8459821428571429,0.1520251525325695,0.2095638478855065,70.92348284960421
1.239450348119928,0.7450087571251748,6.633895740265576e-05,0.8896780303030303,0.1704025857253283,0.235836787598151,67.44012772751464
1.268757571622803,0.7615517234202265,6.373666234042143e-05,0.853125,0.150088329647673,0.1871222039280709,70.32967032967032
1.330653775331469,0.8061301557268176,5.964748929363923e-05,0.8555253623188406,0.1451297841521758,0.1927497305827064,70.13234515616729
1.33743772121135,0.7631354390149073,6.410134016354194e-05,0.846875,0.1600563168187105,0.2192992586742428,70.84870848708486
1.267335322008539,0.7074907159317068,6.67928736900523e-05,0.8393485915492958,0.1485604128481807,0.2076924666767808,71.4840062926062
1.246894671963691,0.7306683805618404,6.844170044329724e-05,0.8791360294117647,0.1807854413316231,0.2697428294317585,68.24882383690539
1.274902622249803,0.7722819851922781,6.449064816524573e-05,0.8477678571428572,0.1601235422674171,0.2076642335040187,70.7740916271722
1.209968051559732,0.7470599379933628,6.68693849029311e-05,0.8782169117647058,0.1365462100219012,0.176570445436071,68.32025117739404
1.246108716928015,0.7563992564352716,6.568281669866011e-05,0.8908582089552238,0.1578161374939476,0.2425804790698493,67.35078534031415
1.319931769194016,0.7715856331512138,6.290018118525366e-05,0.8627717391304348,0.1532979642126993,0.2113710821635732,69.54330708661418
1.314616034829609,0.7826332131527759,6.209564034814496e-05,0.8336267605633803,0.1366465438488807,0.206310867641874,71.97465681098205
1.335615529034899,0.8060154729077654,6.162583432582703e-05,0.8614130434782609,0.1639392662490395,0.2322514088477499,69.65299684542587
1.375634839141194,0.8062602287690337,6.066023968493208e-05,0.8759191176470589,0.165790582829978,0.2420915644125204,68.49947534102833
1.376791250104738,0.8139802126590236,5.964777164573951e-05,0.865036231884058,0.1435009611855043,0.2004919844921194,69.36125654450262
1.358806744754265,0.8026607204343862,6.084127840024836e-05,0.8544642857142857,0.1694336115547615,0.2478393954601023,70.21943573667711
1.316036467326352,0.7940265729915202,6.180315641372159e-05,0.8627717391304348,0.154401877400508,0.1923395052871813,69.54330708661418
1.347422780227577,0.7646133329380788,6.266492917491882e-05,0.8522321428571429,0.1706671380276561,0.2302244198917499,70.40335254059717
1.339325411695191,0.7947313833317853,6.289553031027769e-05,0.8298611111111112,0.1434788438291277,0.1951914237393858,72.30125523012552
1.35239701670215,0.8177619451834492,6.007715467444402e-05,0.8419894366197183,0.1546028785775715,0.2220729750554984,71.25980135912181
1.330585732004739,0.7697972993490106,6.344478859822045e-05,0.8704044117647058,0.1495113734448315,0.2172791703618512,68.93347412882788
1.288646828722155,0.7734457315698948,6.562657300642169e-05,0.846875,0.1747247516503764,0.2657248853116942,70.84870848708486
1.409767135312895,0.7865630555739908,6.260472385630473e-05,0.8852611940298507,0.1511179634167659,0.217086477758882,67.77660695468914
1.318618170497742,0.8116330737010746,6.016300539352348e-05,0.9192307692307692,0.1817129620905344,0.272459187382372,65.27196652719665
1.365301914521522,0.821476929182961,5.863641765474024e-05,0.8677536231884058,0.1774275954222096,0.2564651177404971,69.14405010438414
1.333163666350779,0.818673545660004,6.006126970145474e-05,0.8871268656716418,0.1629581679515215,0.2447967036877001,67.63406940063092
1.251505034771252,0.7554698256991245,6.583778813675815e-05,0.8777985074626866,0.1885644028644407,0.2772495371884544,68.35281615302868
0.7535521606121323,0.5866868037521547,0.0001312435089800287,0.8367077464788732,0.1745212565542887,0.2356364860785116,71.70962651236191
0.4776718551588508,0.5511308145834826,0.0002771260116981158,0.79125,0.1884116724975747,0.269018957183921,75.82938388625593
1.019592407340025,0.863849913232275,6.919561265294024e-05,0.8362676056338029,0.1680381429072929,0.2334356174622887,71.74736842105263
1.08784599052263,0.9109218018904438,5.567623263981884e-05,0.8605072463768116,0.1477851761200133,0.2178619052121023,69.72631578947367
1.171293204365205,0.9422235934500565,5.032873313125948e-05,0.8482142857142857,0.1473620073984125,0.2321832909921427,70.73684210526316
1.161537419991354,0.9351213717969592,4.935284771239687e-05,0.8623188405797102,0.1670894920115706,0.2508029385206406,69.5798319327731
1.204717619302502,0.9286499780087238,5.212829378031157e-05,0.8609601449275363,0.1791258141318129,0.280226897300363,69.68963703314046
1.109189378762424,0.885920646276417,5.538053984871098e-05,0.8632246376811594,0.1655392218122402,0.2391667040291697,69.50682056663169
1.069885982365515,0.9224168882633326,5.601160407677265e-05,0.8486607142857143,0.1629488747370205,0.2080047227202138,70.69963177275118
1.181105637387226,0.941249760897592,5.02930528735514e-05,0.8327464788732394,0.1242382812009675,0.2039304087357814,72.0507399577167
1.18987007856413,0.9497940346383353,4.888795515433938e-05,0.8473214285714286,0.1623404829300418,0.2234865058501328,70.8113804004215
1.150022078927823,0.9438640632393172,4.798329434583134e-05,0.8889925373134329,0.1577154766853886,0.2304436699887389,67.49213011542497
1.063768644863971,0.9478542353920043,4.898492374182846e-05,0.82421875,0.1452216991547129,0.1887793793010661,72.79620853080569
1.110045388992251,0.9400356258301903,4.777818335764752e-05,0.8791360294117647,0.1605926319745976,0.2101175155379029,68.24882383690539
0.7096373098380077,0.7340642259249109,0.0001013919474618839,0.8311631944444444,0.179567420794054,0.2599790924692345,72.18798955613578
1.119964722292471,0.9477927303216057,6.705100975545405e-05,0.8220486111111112,0.1580314152075954,0.2284687141493785,72.9883843717001
0.6075090651867223,0.890518432932654,0.0001368364440369124,0.840669014084507,0.1459317487988089,0.2015218328299514,71.3717277486911
0.673740592635973,0.840644964376624,0.0001357979658070434,0.8796641791044776,0.1732163341557486,0.2205016448437242,68.20784729586427
0.9299393721869815,0.8274538235339828,8.610778935632189e-05,0.8375880281690141,0.1535971735510535,0.1993992092332794,71.63426169206515
1.432993081148409,0.9415062344381395,4.16796867778322e-05,0.7977195945945946,0.1282539904593793,0.1895224825821717,75.21439915299099
1.385798027212352,0.9336358877922005,4.605753339124926e-05,0.8745404411764706,0.1511571336822733,0.1869160683421241,68.60746190225959
1.39267381314027,0.930169507592489,4.522128438956633e-05,0.8302951388888888,0.1673023674783761,0.2119478119726646,72.26346053319394
1.416784041582762,0.9336993344238471,4.198771247660736e-05,0.8896780303030303,0.1601981949849103,0.2287218877219164,67.44012772751464
1.412752499566078,0.9388244167824586,4.190950242246281e-05,0.8948863636363636,0.1640691614481284,0.2526006558703953,67.04761904761905
1.384888808322726,0.9380289758501515,4.264569478635963e-05,0.8668478260869565,0.1682150819624148,0.2371163212775039,69.21630094043887
1.422875910923873,0.9272011483331511,4.226585984821544e-05,0.8495535714285715,0.145265003484132,0.1869330195667631,70.62532842879664
1.359190851552038,0.9335830562408113,4.283469871399357e-05,0.8250868055555556,0.1390400381967006,0.165857778885711,72.71962125197264
1.285078393227991,0.932206030082722,4.307126366086532e-05,0.8517857142857143,0.1525166225467284,0.2275656359370199,70.44025157232704
1.347687613097977,0.9344771788453657,4.798376999674213e-05,0.8614130434782609,0.1833383455807935,0.2356887201249089,69.65299684542587
1.365705967979162,0.8808675919253682,0.0001007100909537592,0.8754595588235294,0.1960733450435578,0.2763092139549782,68.53543307086613
1.674066584574663,0.9316637751417375,7.765272926589213e-05,0.8464285714285714,0.2094811069850297,0.2915048723086977,70.88607594936708
1.705635632222287,0.9224711993677516,6.00463832682826e-05,0.8279049295774648,0.1879303482292267,0.247109404992433,72.47208931419458
1.591511458296148,0.9267618348819499,6.168815770034487e-05,0.8582427536231884,0.1873927614635616,0.2724311839712921,69.91029023746702
1.61406012963209,0.9369594101703108,5.11124530320719e-05,0.8276909722222222,0.1869924449466083,0.2753938440964089,72.49082328264289
1.565871307968359,0.9208157143743326,7.015635262101967e-05,0.8586956521739131,0.2102454391687043,0.3091734712004212,69.87341772151899
1.414038780349233,0.8783489367266043,6.947929007838532e-05,0.8428697183098591,0.1885221428468885,0.2428095410281188,71.18537859007833
1.522761497225057,0.9222099101207546,5.62086489451989e-05,0.827024647887324,0.1819778811186274,0.2286655777080832,72.5492283129324
1.38565877883863,0.9333904661493371,6.69387391189143e-05,0.8568840579710145,0.1953668074571436,0.2901967512081496,70.02114164904863
1.50307917922458,0.9290281161985109,6.774809024270279e-05,0.8019425675675675,0.1917643610821506,0.3055301506319884,74.81832543443917
1.602183803498666,0.9362353262020877,6.923674334232863e-05,0.8180650684931506,0.2004211149918699,0.2699303858302071,73.34379905808477
1.491798324017159,0.9382094538824459,8.450303248436875e-05,0.8433098591549296,0.1989251596157439,0.2454382923611205,71.1482254697286
1.677335619091177,0.9457197998609148,7.334295169876048e-05,0.8491071428571428,0.1905972922318742,0.2594183764148931,70.66246056782335
1.603566227419328,0.9511823039062524,7.502378389717162e-05,0.8815298507462687,0.2031366467264371,0.2569465772502254,68.06349206349206
1.504054075064926,0.9329791981736341,5.077850305701909e-05,0.865036231884058,0.1942834487800216,0.2526002185359541,69.36125654450262
1.38669241196009,0.9302344796476307,5.035302382802736e-05,0.8477678571428572,0.1847205772116582,0.2458037780071915,70.7740916271722
1.276317447747883,0.931264712213413,5.187346416768572e-05,0.8298611111111112,0.1673074343383358,0.2277753325377357,72.30125523012552
0.6583420608517476,0.5797902857681646,0.000150253317339291,0.8133561643835616,0.1747959765581133,0.249048754500109,73.76842105263158
1.262965023752828,0.9276077625613482,4.225900220227846e-05,0.8340669014084507,0.1559937643083043,0.2140437622143125,71.93667546174142
1.222768922409434,0.913882092477513,4.401266983018756e-05,0.8167808219178082,0.1429076597710643,0.2283959578050073,73.45911949685535
0.6110848754535007,0.551069825703602,0.0001013285941431343,0.85,0.1884351678960167,0.2557922741210141,70.58823529411765
1.251204518008899,0.9222689802742918,4.028300049476606e-05,0.8717830882352942,0.1726785781977718,0.2427829554001595,68.82445967316816
1.269433415353219,0.9239442981796304,4.300542050653999e-05,0.8302951388888888,0.1616955908746866,0.2298791208684852,72.26346053319394
1.2528647375814,0.9259341343289095,4.291589555709666e-05,0.8796641791044776,0.1943144260716378,0.2486052475889998,68.20784729586427
1.289090203026319,0.9104322415056244,4.441897621196576e-05,0.8632246376811594,0.1733897717390195,0.2073583189227541,69.50682056663169
0.3097375767193694,0.4489356505703567,0.0002044492665761714,0.8482142857142857,0.168144226387191,0.2448807847338865,70.73684210526316
0.9124284243929176,0.9399159019598349,7.484245099639608e-05,0.8289930555555556,0.1407187401900102,0.1863225943221315,72.37696335078533
0.9089346398152942,0.8627175296819426,6.837153795910432e-05,0.8573369565217391,0.1676948241084567,0.2466748071407804,69.98415213946117
0.8823705789041951,0.8829670027673865,7.967068000557132e-05,0.8314260563380281,0.1663115151169752,0.231635778602036,72.16516675489677
1.13949372011879,0.9266553225244074,5.513614486190271e-05,0.8424107142857142,0.163700554343432,0.2567036017091205,71.22416534181241
1.212043280998579,0.9246074904562916,5.625618374908746e-05,0.8847947761194029,0.1903705142520545,0.2860749845412965,67.81233526620981
1.161487245434228,0.9386880133882646,6.873409048502275e-05,0.8824626865671642,0.1789148949989459,0.2779158432135364,67.99154334038055
1.194377794462219,0.905323590036315,7.966984098379513e-05,0.8491071428571428,0.1857786632923541,0.2841785931876062,70.66246056782335
1.49191505813262,0.9322389159826624,4.230709006512665e-05,0.8146404109589042,0.1673960114043273,0.2745883519394683,73.6521282186022
0.7507567010415179,0.8866413370670135,9.810994011731371e-05,0.8577898550724637,0.1631654636259428,0.2298584422914396,69.94720168954593
0.8306499910049315,0.8116298977527934,8.62574431940136e-05,0.8526785714285714,0.1417507378593617,0.2005568561187373,70.36649214659685
1.546982136306347,0.9140066805447743,3.916519976500813e-05,0.829225352112676,0.1593297700521658,0.2206865808432532,72.35668789808918
1.545662723626019,0.9147766165176221,4.287125427962531e-05,0.8526785714285714,0.1820750048687606,0.265911237505834,70.36649214659685
0.8394220437067539,0.8552302451781406,0.0001258300550380439,0.8446428571428571,0.1665340139614801,0.2085144140570748,71.03594080338266
1.054986423372479,0.9290382991341503,8.447734617816164e-05,0.8659420289855072,0.1554874007252325,0.2307003603161469,69.2887029288703
1.230241088941037,0.9324778338864999,5.968501999712721e-05,0.8298611111111112,0.1676313948200664,0.2531165774116018,72.30125523012552
1.222684926527114,0.9284876858595866,6.041596551539483e-05,0.840669014084507,0.1564835340674514,0.2165063509461096,71.3717277486911
1.181664755750145,0.9350956969878,6.03496947895999e-05,0.8411091549295775,0.1711429254667397,0.2551096140457498,71.33437990580848
1.174076190328467,0.9224367884413317,6.014667719909457e-05,0.8577898550724637,0.1564343325626661,0.2188812631381251,69.94720168954593
1.029095800471707,0.9203431473950153,7.379151626061133e-05,0.853125,0.1731366035306886,0.2557646074426441,70.32967032967032
1.16928317734985,0.9276022174034452,5.831992352665755e-05,0.8843283582089553,0.1535698234952079,0.237276858890941,67.84810126582278
1.216903063357544,0.9402331778508654,6.001308586157117e-05,0.8632246376811594,0.1733081267116145,0.2535082429191232,69.50682056663169
0.2178623177977182,0.407976678513797,0.0003744769616518768,0.8446428571428571,0.1628063243080375,0.2160155175082286,71.03594080338266
