sample_entropy,shannon_entropy,rms,emg_activity,emg_mobility,emg_complexity
0.1490867209591989,0.8187083624132655,1.155424003892202e-05,5.604693636876978e-11,1.507026843730577,1.137542244869861
1.518395818770176,0.8241621049422796,1.41946233193858e-06,3.393075287026984e-12,1.46721043027649,1.157830728025168
1.182818585597383,0.8221990574614537,1.968527502177301e-06,2.283807187334571e-12,1.431486382850756,1.184272032477671
1.059305087710563,0.8453110155792666,1.920022836059879e-06,3.556187385851743e-12,1.238619895307576,1.435234316443375
1.747521243788206,0.8195933143522562,8.934549328716079e-07,1.086687622596563e-12,1.462606019892092,1.150917416724204
1.806085956940121,0.7494689930507554,7.196507646395016e-07,1.226743515486807e-12,1.452725182590961,1.15936267359914
0.06784326356955586,0.8363706214791069,1.364189008877006e-05,7.275568239323019e-11,1.43929521362266,1.183749451680671
0.06984995143871157,0.83415739899434,1.085392160740229e-05,4.643627309309471e-11,1.392037156879671,1.20619465001899
1.859810843219751,0.8285076956126157,6.108701662677224e-07,6.47805755078375e-13,1.442536494709214,1.182417858657991
0.7389781554612781,0.8104066849884911,2.596541054394621e-06,1.139785030461663e-11,1.464696737308062,1.160171126643199
0.3544038386633008,0.8089705543134935,8.802663395246185e-06,3.225978910067906e-11,1.396514859511915,1.210715192316665
0.6703300862880174,0.8201402132948137,2.757979805057464e-06,5.534785414161595e-12,1.421707707812465,1.200403529188045
0.3763511538037521,0.8281352702425522,4.874066057026246e-06,1.044829191903261e-11,1.448784427717846,1.19171772180631
1.347611939514418,0.8376943789409317,9.796612243463008e-07,1.329609702308199e-12,1.403180492942044,1.21183155104214
1.601473697833282,0.621337542887991,6.450372599624974e-07,1.331581652105429e-12,1.46553267678945,1.16105321157283
0.8212270705010969,0.8334450524037227,2.130502001263623e-06,4.495044778856928e-12,1.444994975827743,1.168045390779106
1.787885773145865,0.829104934968864,6.324069566171378e-07,6.031619658304243e-13,1.37748127138373,1.270956829633097
1.710209635968298,0.7741108591327295,5.898322071414181e-07,9.47381660315403e-13,1.416253452926365,1.204223524662909
0.7986559414926727,0.8346860665607225,1.69164110511969e-06,2.626043104653749e-12,1.510659291391051,1.132743002197845
0.226094796050125,0.8205020044410978,4.721299733532321e-06,9.332458901089724e-12,1.353012388662965,1.213836675700157
0.3548802625168321,0.8505791699056456,5.130767142198191e-06,2.927440025699787e-11,1.282156551059261,1.344775178995201
1.625589660724978,0.7923177130337706,9.096606104988536e-07,1.926841534757558e-12,1.420875163547475,1.199288754891178
1.460738197906509,0.8533367180044545,1.06501636541034e-06,1.046071874102636e-12,1.407514211987597,1.213382292958648
1.422726749474054,0.8510232978465928,9.489697714865625e-07,9.000019315933763e-13,1.407774475747035,1.209344493827015
1.895774962027694,0.8441401509150074,5.362447069227001e-07,3.120687826006595e-13,1.455794508832251,1.175740330280231
1.812448061081947,0.8421037338897395,5.537314800183262e-07,3.253559097474814e-13,1.426356415795547,1.200531919653527
1.869261846183347,0.8348485875970288,5.252910275551535e-07,3.321988217747323e-13,1.465292171175061,1.175419916902094
1.862393505344603,0.8426545798166103,5.172528307821409e-07,2.966302948481502e-13,1.427663575015687,1.198322482564237
1.900628022923958,0.8282487814854134,5.088346138734404e-07,3.246015840215877e-13,1.418009952589119,1.197746751086027
1.564587934067705,0.7535374624051363,6.809887233681487e-07,1.164931151992672e-12,1.454071155203922,1.172358153715127
1.866650910696906,0.8428791748666612,5.047125189610002e-07,3.469749909950033e-13,1.405759310653502,1.237744422646609
1.886204566180482,0.8206587106459863,4.679100746054689e-07,3.306351196689412e-13,1.409501364232826,1.19039445592579
1.389164993354005,0.6268501028369139,7.852008960162504e-07,2.130728678064762e-12,1.421171994729381,1.185586359874657
1.881717723328491,0.8200973482512757,4.847674316867162e-07,3.489195353135754e-13,1.432815300554557,1.187907426936669
1.857073334020062,0.8320018762780907,4.349855296613779e-07,2.798574889127544e-13,1.412528477801315,1.197744861385061
1.871114963634483,0.8345602354516571,4.124416879469667e-07,1.997827283968705e-13,1.425454222204369,1.197642823116559
1.876545673378846,0.8135856330702861,4.341197414550724e-07,2.963989706467485e-13,1.457434715596916,1.172837382063529
1.840226906127558,0.8304785507889818,4.103530050947825e-07,2.324765783647569e-13,1.43205551906069,1.190113113658923
1.827190273193873,0.8312853509685253,4.061735451483912e-07,2.124604695023577e-13,1.417941391363913,1.201278887477331
0.1515951173840223,0.8265560881057247,6.979885378252364e-06,2.275038276255321e-11,1.401878030561753,1.191878289736819
0.4209489582919969,0.8353139085513323,5.268670599596833e-06,1.635711338535605e-11,1.436761984680867,1.177353783856472
0.7833831486168874,0.8471918630171515,1.369347956794023e-06,1.646397199762242e-12,1.504688711289381,1.146340068390962
1.357745944659366,0.8592607073689731,7.543417067163676e-07,5.803383459260774e-13,1.453239701062785,1.174089893434582
0.4852426248596958,0.8041377163866732,2.128368416875191e-06,1.769505219527032e-12,1.35390454434376,1.242513732989367
1.876377757727921,0.8334616536714213,4.206405058953171e-07,2.097420863939116e-13,1.386491063585874,1.210755357521069
1.816695248635983,0.8125345588078624,4.931326645145833e-07,3.477510955016471e-13,1.398208416448285,1.204721521682513
1.800418809599965,0.8198091903373921,5.031111003505913e-07,2.977731285829069e-13,1.394877088340916,1.206167220428807
0.6787652166817242,0.7694526257548565,1.932162306155879e-06,6.566419977563461e-12,1.474320516501719,1.171866476120344
1.537504676387113,0.8202609892373008,6.245517797461724e-07,3.862994756143854e-13,1.444671645242736,1.223193090131295
1.611874673909055,0.8138412948269124,5.800434174728005e-07,1.746695242172856e-13,1.335118029756011,1.26850483866341
1.564069565115837,0.8052445438712326,6.494537853801749e-07,2.743627423094837e-13,1.357797700560395,1.242846273014688
1.469810646671563,0.7882879165286959,6.441444797599674e-07,2.128150025001214e-13,1.34294103253823,1.252248868941279
1.46151461012501,0.7941739302974183,6.59900900415307e-07,1.975993979485329e-13,1.39158399381585,1.215579690369795
0.6285794336232124,0.8460510599937574,1.83323084238345e-06,2.101405234940427e-12,1.485507308907738,1.155194604409668
0.06018629067381768,0.8196680130534894,9.605828412797264e-06,3.557260238965529e-11,1.378026552471486,1.214399067933347
1.734720733224298,0.8275821165455668,4.950855748795401e-07,2.029248013828878e-13,1.384730443016211,1.218533535445959
1.49317405001233,0.8352230126791785,6.753936312301555e-07,3.26993538822702e-13,1.418052486823229,1.20637778697589
1.603352380766551,0.830663519802584,6.872070196917197e-07,3.889599382540094e-13,1.414931730714597,1.202285218232298
0.620863118810534,0.8398576997906283,1.907643961726836e-06,2.374698410196813e-12,1.472808727592204,1.158154624800753
0.4783076800585107,0.8188366731103706,2.117994631836935e-06,6.481649326060883e-12,1.492308197479639,1.154409720633875
1.652858784500192,0.8167796610173524,5.531620058745321e-07,2.179190136802423e-13,1.341024744726206,1.247058179417011
1.664549275000886,0.8108825406219077,5.567651856635634e-07,2.052963354146143e-13,1.372216418323474,1.242950996579595
1.59945301801462,0.8165781985282821,5.214140399412362e-07,1.466822660287463e-13,1.37776069808162,1.219189656984086
0.1668059576536023,0.8116360260637064,3.524433250628152e-06,6.77590893175883e-12,1.509262254653684,1.140933815186847
0.1598968512710666,0.8178318618844532,4.082108236024982e-06,9.01076057049651e-12,1.442015686473419,1.166265517279602
1.680332288927006,0.8490590070615863,4.354127508631175e-07,1.619732734832938e-13,1.405987044392883,1.191100556879785
1.688744211876998,0.8480302383652026,5.013913246869618e-07,2.695032630054508e-13,1.457268459089639,1.176665425736836
1.671947903187883,0.8324820584684374,4.73477479491367e-07,2.320452909061321e-13,1.430451573873887,1.15533494011641
1.710394648599182,0.8372850920036528,4.037747842432638e-07,9.067800720308803e-14,1.413706211909459,1.207056180734537
1.697581170024556,0.8521702099496691,4.489335596752652e-07,1.710888412347151e-13,1.430630069478021,1.186600681700823
1.713252239241042,0.8460756761786802,4.664656904797736e-07,1.440618703573322e-13,1.436629135753563,1.204431159388763
1.698864548198595,0.8408008159785675,4.584502415573379e-07,1.261580921822766e-13,1.390005087903239,1.232959078658663
1.704016174119071,0.8359760593317458,4.490072192111525e-07,1.24290334348637e-13,1.390719884982474,1.263526271128976
1.786007189384531,0.8382409062991396,4.570554932827333e-07,2.020101386415861e-13,1.367047712036448,1.234306744936639
1.668117079118179,0.8379716263292264,4.708201660685206e-07,1.318110115215189e-13,1.39434497245628,1.218940943435593
1.633953025689628,0.836666688558423,4.747882643996584e-07,1.330913710243205e-13,1.420295577099826,1.204549827818133
1.720046268052224,0.8412144129355678,4.245439027408346e-07,1.384673987677864e-13,1.407721330756153,1.210903197624478
1.713624345619402,0.8410766967988543,3.966983572390391e-07,1.152472120966479e-13,1.394327257388836,1.222866161019908
1.734785300350679,0.8349460442343608,3.931281288527108e-07,8.659782899820759e-14,1.39956099718528,1.221558536212207
1.774128241535516,0.8414105408439063,3.946391749440889e-07,1.005748480095964e-13,1.406636684180167,1.220939145279679
1.76447603334409,0.835527386357917,4.136369197821759e-07,1.749360129679893e-13,1.415056038706984,1.189300339612519
1.782024775009077,0.841607728003068,4.003421522609185e-07,1.222113737867866e-13,1.404419814935528,1.209612132264382
1.7380970723042,0.8349694056793798,4.25655616692808e-07,1.965697148901467e-13,1.412991291836905,1.198402379007215
1.73362486243208,0.8345369693447362,4.160858342808901e-07,1.503439824041781e-13,1.39825531327361,1.185972263584869
1.637215885975952,0.8393003755445908,4.22374557801198e-07,1.138294309238574e-13,1.41388313973627,1.199641865555128
1.59294695185333,0.8424014940086261,4.308825557080586e-07,1.814643732178234e-13,1.423105362282798,1.199461769220289
1.760873615419952,0.8418097826600066,4.083184138258141e-07,1.129420005731518e-13,1.431406592086527,1.184729316375462
1.77158355645172,0.8334838239681934,4.582800149987287e-07,2.155388639505734e-13,1.421731421040808,1.183808760842155
1.123895633017443,0.7776995297154745,8.694726522094924e-07,1.726496069134784e-12,1.481649523644104,1.175840200659171
1.590948119994714,0.767886228960761,5.69222827609032e-07,7.809587896969142e-13,1.457779364676039,1.166737085906916
1.803901103858701,0.8129069839949674,4.567262757303341e-07,2.917564679286595e-13,1.376088320473964,1.207537676649516
1.615913461125827,0.8267025255440437,4.510896228562243e-07,2.677534760653096e-13,1.351028971928707,1.245597455521061
1.650117259437936,0.8272608330717478,4.627464944429652e-07,2.255860307565955e-13,1.391670492979128,1.197921557787232
1.733973774004963,0.8369128318626065,4.46444487109113e-07,1.675053421622668e-13,1.403607310140024,1.18645002301187
1.808601837910162,0.8203589382597607,4.266488878732323e-07,2.433852755496449e-13,1.391721661249361,1.199299996277408
1.79685340625293,0.8421014693396737,4.035917093397944e-07,1.320153581723982e-13,1.4016589598826,1.194309251213067
1.844534991463277,0.8351250706432808,4.173147604069111e-07,2.216368896364348e-13,1.405168906532493,1.20735759249355
1.834332210766366,0.8172694955205666,4.380234757511104e-07,3.032818830396332e-13,1.424436614702905,1.19872666359311
1.778542196667378,0.8154412182330806,4.400939741904988e-07,3.006843796014363e-13,1.411436759789575,1.20123353068617
1.763131294060035,0.8318810566469641,4.397594575449659e-07,2.696750499591136e-13,1.409133206215404,1.196634051626445
1.885750559028368,0.8011365928357349,4.047634024660217e-07,3.189443325074656e-13,1.418038724520995,1.186426173354505
1.842646561735576,0.8052247476866068,4.088864120345175e-07,2.801674982384991e-13,1.424150593094966,1.180420990708912
1.862780444142297,0.8409105403072406,3.857166628305795e-07,1.647183684963351e-13,1.418467924650036,1.191771434024006
1.876217495988995,0.8349832454894829,3.838390401789457e-07,1.724148583725571e-13,1.421147459726871,1.183612304934763
1.825372282488984,0.8179367496534607,4.193306369400847e-07,2.645564636753687e-13,1.436933417806352,1.178543029316568
1.772108174807932,0.8304637144991297,4.265232266074355e-07,2.567210707845481e-13,1.401530533166168,1.193090444557523
1.736154734396277,0.8221194217193409,4.080945917251131e-07,2.495104748510583e-13,1.396457981864816,1.195255627005579
1.839472001126875,0.8067323135792446,3.997499666042595e-07,2.66899381228472e-13,1.414566587394421,1.192121715560188
1.832679698792104,0.8178748072684642,3.774998621306788e-07,2.263832065158222e-13,1.408262371160894,1.198377436065487
1.84219115458685,0.8186975909875769,3.5834920714649e-07,2.410373136764112e-13,1.390225491285267,1.212521869240464
1.868678058483692,0.8366581571501722,3.545705906780145e-07,1.363970741331586e-13,1.409698937687227,1.191611497357623
1.112661198259367,0.5761543025450798,8.018528437137892e-07,2.532228640713174e-12,1.533888534065479,1.122973073872501
1.739503753590799,0.8445430357537358,4.134663131907147e-07,2.945038804277974e-13,1.310002107443391,1.33699175505398
1.854905608128394,0.8372085390031342,4.098237505759572e-07,2.615163273746616e-13,1.365753278126915,1.247545946805058
1.854356149555191,0.8262051547375191,4.638369901503397e-07,3.030354789808539e-13,1.394321357726229,1.200181057609117
0.1167588697532403,0.8127947811603604,4.856432077164815e-06,1.621599652589276e-11,1.387981504400106,1.20982752001346
0.1194823806855608,0.8288833726244426,6.467023805015675e-06,2.566701003427545e-11,1.499023862662529,1.146622092599262
0.08668791890458315,0.8116255265495824,6.74724045493712e-06,1.764002090973912e-11,1.428377044640404,1.196885684702872
1.747300024943762,0.8493306367566288,4.6445353435219e-07,1.675034631657206e-13,1.491721047059348,1.149483002614299
1.405925457854796,0.8229134174106532,6.952571596471581e-07,6.510399126063694e-13,1.471823618851018,1.169038771394442
1.742514760195704,0.8038298635977085,5.117209579825404e-07,5.656784514761341e-13,1.445218204011383,1.182580548698179
1.491016377821732,0.8288121263006898,5.932250492011758e-07,5.921287773850265e-13,1.423638160766205,1.191187950442208
1.528839094951923,0.8206214473706166,6.2045727221767e-07,6.141283788773023e-13,1.44686567122663,1.18129475049893
0.6862825600647773,0.7839471971393721,1.742529269765212e-06,6.695105811762736e-12,1.5324114151114,1.121040087387093
0.3749952825525283,0.8387678332614119,5.205514219782636e-06,1.672149539440612e-11,1.417543827825529,1.198923041978929
0.2591989256059053,0.8240049431041142,4.477491505950591e-06,8.441421810544674e-12,1.382949584677464,1.26297346459955
1.721571772611057,0.8252464067676923,4.95514521046378e-07,2.173148534673996e-13,1.406910493442602,1.196986582064101
0.2113232821269829,0.8403304677357758,4.557466220652313e-06,9.45462835501303e-12,1.413045687521707,1.192864137254798
0.127393213332613,0.8290059878427061,5.480827356868351e-06,1.370553396891254e-11,1.415828864985118,1.173965255482658
1.82136682964426,0.7934004242857903,4.117707365773768e-07,3.199985299175964e-13,1.408581541195215,1.191201192351355
1.824995202318169,0.8366798771530051,3.884528481618806e-07,1.983404889838867e-13,1.444623249710806,1.175773595936071
1.821735345416916,0.8240914116700827,4.083228179798661e-07,2.783294343817087e-13,1.407798093898935,1.201490237847929
1.845302867501601,0.8361422719769435,3.924510760883272e-07,2.396538585843806e-13,1.42698707861659,1.201154655146758
1.831252492404929,0.8430378699882052,3.858453390672055e-07,1.625136616821985e-13,1.400818514863692,1.207608984017754
1.771883234230237,0.8336126855257254,4.246957583020924e-07,2.659877651307491e-13,1.390052817906676,1.228044546056418
1.725750205434634,0.7720251086776047,4.853358990371904e-07,6.018463965985877e-13,1.419669095290723,1.186794325733215
1.744566922778933,0.7717505716296502,4.578621859335316e-07,4.390054696348165e-13,1.412104512446774,1.182948515949173
1.832802471373973,0.8362810478357232,4.026995638325055e-07,2.049454412624209e-13,1.403335961426274,1.207018377340907
1.807572351679312,0.8359243273677299,3.968838812094947e-07,1.853191130425611e-13,1.40705185839591,1.20668637518924
1.868984017868565,0.830419324648747,3.854484563819021e-07,1.761424302419595e-13,1.423269154038747,1.173514328797854
1.838774114803701,0.8143956091560934,3.92494542812742e-07,2.573291916347625e-13,1.39105121647075,1.200686395601903
1.814357811237281,0.8322692558883197,4.151004667933069e-07,2.705893009099907e-13,1.426059954999688,1.186618903366208
1.729886486879034,0.7890131033251603,4.435457784584534e-07,4.83910212168997e-13,1.424851917167843,1.180801275759648
1.793348362937165,0.7865320649849769,4.454857458389987e-07,4.317794171277078e-13,1.414675284206988,1.189763439581595
1.216712432601843,0.6834194502983715,8.457262599081252e-07,2.33109612001554e-12,1.399919491543447,1.188518305553987
1.762175525543696,0.8119470946765033,4.114642111441089e-07,3.598396920142916e-13,1.406323388163747,1.191032166014702
0.2578139665124763,0.8185891565235349,3.597616700568522e-06,7.609964616488954e-12,1.373232353938284,1.228135783166663
1.693774312428307,0.8152258809747004,6.217747170723648e-07,3.484450776027613e-13,1.370588773218529,1.233565252103355
1.689329582549132,0.8093559799573226,6.337353530946923e-07,3.783701142025586e-13,1.385122636474138,1.206732675751093
1.715303816551455,0.8037191726877505,6.345332896086026e-07,4.397631027428063e-13,1.363924922648403,1.235297322454069
1.620278038500186,0.7907709278645836,6.583621138480229e-07,3.802013025640104e-13,1.3650737764997,1.238229874687591
1.679858072865443,0.7969081490604036,6.304209583373781e-07,4.342597838158798e-13,1.351897537736646,1.221262107900482
1.666983625175855,0.7916087077055449,6.826457603587663e-07,6.042804828736298e-13,1.365223204826337,1.225839876446605
1.69445819520303,0.7925246383098986,6.175581840468341e-07,4.731180961714975e-13,1.389417735799005,1.212323352227366
1.071937858153761,0.5358944400610817,1.303353119499825e-06,6.779856977608095e-12,1.343853478788553,1.240398434473629
1.639088635420547,0.7911764851032262,6.975153844824402e-07,6.32139627737307e-13,1.354643915019657,1.23305620101528
1.663180224566964,0.8076335070579977,6.248928768285104e-07,4.608235698764781e-13,1.381391325068218,1.213517032425637
1.671930626103466,0.7809947626822463,6.45852711671748e-07,6.995557616969623e-13,1.388164009897061,1.20010186060111
1.631468019336388,0.8050064344646954,6.12625314945161e-07,4.74709619465292e-13,1.395327548880424,1.211503175537616
1.572886844386317,0.7898300160339781,6.16241755994388e-07,5.022402252893583e-13,1.379745962078606,1.225535729209983
1.680222915887469,0.8042647403595694,5.682308478978651e-07,3.696786396009425e-13,1.367097164455524,1.226504818664741
1.678846669485499,0.8198227095181074,5.759352683453818e-07,3.288279495532847e-13,1.376438770876175,1.220810747360763
1.58223863577795,0.8080468264622452,6.454353486140574e-07,3.615880318701282e-13,1.35633869968878,1.235027636829689
1.568509835024434,0.8153834964814152,5.88197974181225e-07,4.67475759054282e-13,1.364724927572282,1.229353562451462
1.778249541049987,0.803772917736959,4.977084396738093e-07,3.967311963944995e-13,1.396504633293394,1.205008756426187
1.799371061803213,0.801001497440804,4.948295711006808e-07,3.837944680064108e-13,1.406449518463978,1.191025910328544
1.78107841940918,0.8149333296305943,4.743981082820635e-07,2.930715555697158e-13,1.405042908051614,1.190879026319202
0.3837232343352788,0.3243692349546526,2.828215601419077e-06,3.894959827308883e-11,1.3368543647488,1.286742174456861
1.823535876473774,0.8358317183962166,4.978845517649549e-07,3.096037497180696e-13,1.374622034897838,1.247674536751358
1.798947477788646,0.8253925619692,4.63078468679769e-07,3.056462090448618e-13,1.390537235671047,1.220094016292242
1.796428790322112,0.8198110895550438,4.608187203926343e-07,3.528688812444236e-13,1.416226540378063,1.206465399563226
1.759974082417149,0.8317526917062988,4.512200712622888e-07,3.348821177281467e-13,1.400458833975638,1.204712463996506
1.842622504282025,0.8253812628236282,4.304897807928404e-07,2.889486837145075e-13,1.439037124259712,1.175197998425912
1.816986814798578,0.8370686267556398,4.185148621751098e-07,2.168842513845739e-13,1.432244079605553,1.18407437761814
1.819938772604806,0.8036605844379923,4.333067587561549e-07,3.314853726554254e-13,1.445531095313289,1.160606332702873
1.777356568425873,0.7787296843914512,4.488298751271799e-07,4.571672609127536e-13,1.466206348749024,1.159813654456875
1.758939817473981,0.7511462590847636,4.672033089002216e-07,5.269288678359753e-13,1.438984410480087,1.175123580541204
1.800253562417792,0.8045580847016275,4.314451612523389e-07,3.102913516215489e-13,1.413075716348053,1.180460071831496
1.722796690215279,0.8352385342596664,4.831386805292936e-07,3.060914055861587e-13,1.480794964529104,1.160213789779641
1.802527406672023,0.8333379193164452,4.38533323390432e-07,2.18074172767088e-13,1.438354905402288,1.1805457498664
1.899984202172282,0.8165372956318251,4.130944136722346e-07,2.392407758831716e-13,1.42921872564221,1.165924880502589
1.806894441491309,0.8211619027002991,4.373800335143306e-07,2.825108828430082e-13,1.45218900836708,1.165645230544998
1.884163215553361,0.7980393745145804,4.358239777840537e-07,3.735689411392728e-13,1.427906740012348,1.177376304481029
1.77547236454833,0.7947444149331188,4.630956056157025e-07,3.866236181417576e-13,1.43399298303114,1.17055729873622
1.739093911354752,0.7791738364242546,4.409803440004477e-07,3.97677918918746e-13,1.438792910801425,1.173752446091544
1.77543018549413,0.7640476828813532,4.563992501861681e-07,4.811298291290786e-13,1.453041857152565,1.172329429623816
1.767287320445201,0.7676173450494057,4.638902455938548e-07,4.552582198068862e-13,1.432405549126098,1.170962243476761
1.771323185631397,0.8019539265847864,4.322276023894045e-07,3.41355180871522e-13,1.474431252565407,1.16234749243657
1.707485492049986,0.7285546391060432,4.890802085162442e-07,6.23292471199703e-13,1.47231450982708,1.163105589739516
1.693742432667626,0.7613208439640892,4.822043649837627e-07,5.44657960342581e-13,1.431701750256032,1.18694247346226
1.758627370385547,0.7815291731277146,4.491584063468424e-07,4.034898166941817e-13,1.423641194622059,1.187610177947588
1.733020792331869,0.7886063059266724,4.545295871722499e-07,4.186549252504856e-13,1.438717975974458,1.179609348435538
1.836721482927885,0.7954691579472999,4.55072506034047e-07,3.924582802055479e-13,1.459811215743689,1.164655110537874
1.792408454587221,0.77963678334889,4.259098845968588e-07,3.803601543678815e-13,1.430821403266346,1.180747130274308
1.839547522044705,0.797238352304019,4.037560531140805e-07,4.042421101120727e-13,1.437061328910884,1.190524474327635
1.781611620839638,0.7502313568769368,4.244891734875071e-07,4.155807537867875e-13,1.463439037404467,1.159466527925334
1.811784456479506,0.7829646869845608,4.181371679088782e-07,3.405167644909016e-13,1.411523297549526,1.19264991808862
1.786785331507255,0.7503223015270089,4.308446279191023e-07,4.340028539346329e-13,1.46730352835002,1.157178535068666
1.804272424468767,0.7562981537072012,4.099064938202586e-07,4.023007777761749e-13,1.463369196110927,1.159871951122891
1.727913215914773,0.7238924484717292,4.351756539955124e-07,6.137141795401632e-13,1.453122225599533,1.173473190866164
0.2424895177607052,0.8554638468717533,4.259547693341463e-06,1.664408213017235e-11,1.485547771872726,1.16914004040083
1.537172860456709,0.6072022735248729,6.123678054853303e-07,1.492367467945092e-12,1.523314916582913,1.148563481512312
1.707189370593803,0.7656563751273066,5.054109391137207e-07,6.906272483951034e-13,1.50409406849581,1.152166910714211
1.725575307226921,0.7843144276803672,5.211428004293956e-07,6.327277423392042e-13,1.505013322075594,1.151534148577307
1.841806040696551,0.7746966710979872,4.474271355288509e-07,5.757882299866502e-13,1.456486046599264,1.183644808592807
0.367732792776696,0.7457652198984182,2.601341786261229e-06,8.958522468235433e-12,1.318673601374401,1.239920555227771
1.261770667634687,0.8316013263146974,9.077374370504202e-07,7.881741860322976e-13,1.398553432133571,1.210371569657161
1.448426739810865,0.8384558555354249,9.57184560655246e-07,8.576734899186737e-13,1.395092506437272,1.221646657818549
1.809290074053495,0.7863634148636272,7.001174024299435e-07,7.798177706305132e-13,1.444102342999256,1.166252542607012
1.660080550141096,0.7601386963319849,6.697800846310702e-07,1.00835871918974e-12,1.418611953146129,1.17968511396723
1.738604150800069,0.7703451137947106,6.637071294558745e-07,1.002205852066819e-12,1.432458510254064,1.183943661161579
1.680674327836003,0.7680247580073518,6.227068671411533e-07,9.069573815853965e-13,1.43745177231562,1.180811002119642
1.663554790954835,0.7348498733412694,6.240029265826633e-07,9.892720056942528e-13,1.468816292833215,1.154016450744073
1.685840182532263,0.7411881001001183,5.521253617630685e-07,7.65962011776175e-13,1.43195309003713,1.168639122945313
1.715772047235199,0.7456386025276273,5.252172560806789e-07,6.650483899360611e-13,1.438368600496335,1.169119593035216
1.679392656068754,0.7156076417790636,6.2923167346692e-07,1.024572486108741e-12,1.456686722475998,1.152576107363911
1.607377119976591,0.6787215930017056,6.762972300824084e-07,1.407507160067538e-12,1.44888003406633,1.160368489059372
0.9763498976409728,0.7901759396452638,1.362665717734492e-06,2.771329810525661e-12,1.464480630586102,1.177060667026658
1.606521944968109,0.6891129785102924,5.229951626978032e-07,1.020513345393045e-12,1.433414554840053,1.189117881030287
1.793042137978338,0.7376019147519876,4.440764413707792e-07,4.911702687998381e-13,1.462699000588904,1.166140898469283
1.472080105626154,0.7496652767465973,7.334624182534206e-07,9.799043817210034e-13,1.426358741121355,1.181659663251913
1.532242975286077,0.7621759557674849,8.822780595328393e-07,7.290643624177585e-13,1.369459541015037,1.216479776253429
1.44039815196203,0.7797309283010724,9.092238327587076e-07,7.41003493972762e-13,1.390705080495343,1.215821391332729
1.576342156714569,0.7982113935809747,7.707587879316264e-07,7.426325897881192e-13,1.379079026452284,1.229781805367615
1.542966306448051,0.7451048314506996,7.036548465817988e-07,1.045033585144797e-12,1.42168907007586,1.173337560209937
1.629567283729266,0.6695277729942972,6.096901720290651e-07,1.116000582779923e-12,1.461051862833013,1.152635593643663
1.701224116822297,0.6712451983138152,5.784042250647417e-07,1.04932080978706e-12,1.462466147653083,1.160659674087405
1.614298594260797,0.7269342938898711,5.895979147176148e-07,9.22284365758672e-13,1.47701547196682,1.155404275970804
1.639592147459931,0.6113811707587208,5.79586077452895e-07,1.167515145966425e-12,1.433669971218577,1.163972247833221
1.399306906474324,0.7144011714402652,7.100389331081744e-07,1.233949901484637e-12,1.422431184857029,1.189377652916037
1.415965030260146,0.6890042728300074,7.312275688611498e-07,1.413300628639788e-12,1.439783598240652,1.202063878385065
1.720969471068952,0.7232031920277178,5.054984902657966e-07,7.956863953483166e-13,1.457373827136926,1.173656547767944
1.701112579542035,0.695719875367755,5.362893201312027e-07,8.453918890222713e-13,1.455634751878581,1.169398811263419
1.592724005290914,0.611871187403916,5.777423833486497e-07,1.159543090356778e-12,1.476044572600674,1.149924420978389
1.544704989731479,0.5944327757380354,5.788822146601499e-07,1.217136297559265e-12,1.472396451039847,1.146449231480554
1.593470875094119,0.667078139377076,5.334184721769325e-07,9.853317153173384e-13,1.444373306821592,1.172295119994078
1.619203813879197,0.6356798865960189,5.455354972760798e-07,9.823870340171622e-13,1.46187496435604,1.157143829196032
1.50805085130602,0.6842119139770644,6.181462381357134e-07,1.123376812643448e-12,1.492480050772605,1.148749449090648
1.565447751173563,0.652040719885134,5.58560781132466e-07,1.102686987554456e-12,1.465184698002283,1.169617656550144
1.604960309473426,0.6006497306855934,5.688146139390547e-07,1.130688083771093e-12,1.454947072916084,1.149511445603617
1.528319372465188,0.6179691852299986,5.496156808336438e-07,1.105079661250271e-12,1.455433856171197,1.162111904608551
1.490331045636596,0.607473153300156,5.932053482685089e-07,2.142638203113899e-12,1.437949584008584,1.212568798063073
1.509258644950044,0.6052856166508044,5.737422893891382e-07,1.154800186386234e-12,1.459107954988779,1.160441025450656
0.2680938006086035,0.7088119578748291,3.452899341274682e-06,3.460902396594237e-11,1.444708323060948,1.163566830392227
0.07331771259596934,0.8037254121519123,6.423696298440036e-06,2.329074871484433e-11,1.363339280323788,1.229917047679781
0.292492825570806,0.8443609659122812,3.711567547477986e-06,2.386063025632738e-11,1.307132574073102,1.336088552390034
1.679478317993043,0.8255608424250032,6.566328217057385e-07,5.388080059907804e-13,1.465802634318814,1.162421888247418
1.751700932530872,0.8141940987807673,7.224069435749366e-07,6.170777981620439e-13,1.477062646989764,1.154156876532748
1.742921407593,0.8103486736106326,7.127988895509931e-07,6.036444965581587e-13,1.454858858229205,1.182395581543699
1.723568064285705,0.8096524917644556,7.322258917271393e-07,7.566432086663218e-13,1.45167094828661,1.170930710741944
1.699912736045563,0.8165396639611472,7.323098169266852e-07,5.964849277634085e-13,1.472774541365891,1.17477021066539
1.683070745745822,0.8124233316388002,7.414047090125088e-07,7.378597788497911e-13,1.447872781809559,1.182111344154184
1.807879156852933,0.8173265540493351,5.275197791804909e-07,4.958562618100241e-13,1.48345176937866,1.158327493141945
1.06592363921831,0.806961429553292,1.115004040771522e-06,1.331393386817711e-12,1.370956484791542,1.275144204378602
1.816481690326208,0.8242087542693659,4.671303409737412e-07,3.486743937007515e-13,1.436093853103066,1.184349820604396
1.850002179774122,0.8222053553964004,4.551778641067678e-07,3.160318855344988e-13,1.486613629514446,1.16277667883057
1.763710065836269,0.8055314390909036,4.664679745662022e-07,3.66611276641763e-13,1.473780586269493,1.158329007111597
1.748351043579907,0.8292018758844671,4.726589829397232e-07,3.579051585983034e-13,1.386079488541057,1.207515064572136
1.465308177683037,0.7949226582052751,5.99221738861493e-07,7.699874496258279e-13,1.49437590326603,1.155859694112384
1.737101931575501,0.8297919098797772,4.846787310078041e-07,8.207148377524487e-13,1.348147836452655,1.312820222609584
1.815015105607604,0.844380312543309,3.917854100147959e-07,1.212870309514845e-13,1.469393137416092,1.191339384369159
1.852494853868169,0.8438633909179868,4.210598684834608e-07,1.88012085524754e-13,1.449429091326239,1.187455675680838
1.805073520886817,0.8285851497637718,4.147343992492162e-07,1.949381716291242e-13,1.444012883914627,1.17414038442458
1.758723518550803,0.8251430444924857,4.40917511338358e-07,2.96567577750043e-13,1.432994142816537,1.191840722028559
1.804954536565181,0.8447080967546525,3.856221324568303e-07,1.057945069579649e-13,1.45718696191544,1.184843453655025
1.798734745537084,0.8393236740687492,4.186368533481034e-07,1.750198337524215e-13,1.412783326128836,1.196686151053866
1.680962264585646,0.8340005371440354,4.00549854113686e-07,9.888026262790269e-14,1.452851637495753,1.171051193043058
1.661583767643446,0.8363981780296721,4.027118210309227e-07,9.01425314652197e-14,1.463465258285393,1.190923032248268
1.54752363447607,0.81004775226314,4.456266338898336e-07,2.847285487523538e-13,1.392289345169684,1.198595410509299
1.728838802625212,0.8257209939509885,4.065051637609664e-07,2.047869157919819e-13,1.411879096615872,1.182728911433011
1.738698006274428,0.7974461380069343,4.209897170399551e-07,3.665347840147845e-13,1.404562720909258,1.186810393818732
1.728398590373496,0.8412452596116601,3.85648779251845e-07,1.026951998577025e-13,1.406787635039559,1.2083140296951
1.615388950861087,0.7673163659362409,4.621098512137395e-07,4.602616291117958e-13,1.421034163019663,1.183516958699391
1.594602624865088,0.8267120136916699,5.120770768249483e-07,2.37965452395684e-13,1.414177077887307,1.203216162831253
1.553157764427004,0.8319120652643803,4.754523397894355e-07,1.574470026904598e-13,1.382577789378699,1.230257589055914
1.69531153475087,0.8361208113728584,3.730142680645812e-07,7.81297320031769e-14,1.415228952593136,1.207905295399365
1.698063649923262,0.8422768876361715,3.889667796403414e-07,8.855685168087593e-14,1.467045243731762,1.164643756223733
1.717824848305444,0.837202961766172,4.128862255665772e-07,1.497554108228138e-13,1.412415804807741,1.179935823493245
1.660768222199887,0.836594320354629,3.972792859011112e-07,9.104817091316645e-14,1.405850147370449,1.195123359959775
1.094495689403407,0.6702391266433217,7.803958309234046e-07,2.268514937727483e-12,1.51559167748134,1.134683537338858
1.815740066408814,0.8410246414518147,3.850642377254659e-07,1.66826635208486e-13,1.395477688146169,1.210622882415727
1.75054893399328,0.842518725354047,3.755434529365992e-07,9.664193900691333e-14,1.431687841462143,1.188441741819407
1.721484503027879,0.8422709242796541,3.905142334301695e-07,8.823328027281402e-14,1.485830561739204,1.164893412802686
1.66080224624687,0.841042804885716,3.741989488124897e-07,7.361228599422919e-14,1.46962262746059,1.173264606200705
1.752704717406164,0.8428171206750688,3.769816303396609e-07,9.321348572375475e-14,1.434386278337309,1.179300243088385
1.688939061168399,0.834078154301198,3.987892556386388e-07,9.281729547394408e-14,1.457198456092202,1.17331721648356
1.746463995787564,0.8353462429846598,3.811369240382208e-07,9.35574808317548e-14,1.421371407972644,1.195464019379241
1.743881625233855,0.8474702616254033,3.639982606446321e-07,8.927523732758679e-14,1.423494706830857,1.196669586246056
1.725278404847228,0.8453632702629715,3.946300611292031e-07,1.274122310567024e-13,1.423956785308825,1.188518208530374
1.730304297733362,0.8421655904842721,3.754699630179644e-07,9.740365519530484e-14,1.418972263969182,1.198323648089389
1.702515091404154,0.8401781051653262,3.840834588980434e-07,8.78046229726487e-14,1.447110837951562,1.174616997966204
1.65484237144899,0.8416854035140376,3.726351110943403e-07,8.271032544057096e-14,1.423347182652296,1.200222705215911
1.713768523078699,0.8382501009558442,3.761655839321958e-07,8.565353602303606e-14,1.437113456742771,1.188357707419478
0.6292880480095328,0.8102297356573983,1.40497033051756e-06,1.261730739346772e-12,1.391443817850153,1.185511615379565
0.7851217168198099,0.8257957635399698,1.463553452696268e-06,1.42654878064473e-12,1.390264401295749,1.199594366929798
1.770200674837117,0.8018390127170238,4.890915401242515e-07,4.077953095721007e-13,1.450267998145308,1.167414079888696
1.781619338773923,0.7477567851801766,5.390566536816899e-07,6.265287140421057e-13,1.450419461991977,1.153618542670964
1.836693671377547,0.8108382431173853,4.65543773034095e-07,2.887906871192782e-13,1.449940328462622,1.151250695514118
1.89194678463458,0.8198999199925759,4.492377384137816e-07,2.610182464650474e-13,1.42725716452197,1.179580175096738
1.910415705380015,0.7970416822384194,4.737940846740291e-07,3.014483097432455e-13,1.441680673443322,1.158514163573043
1.765489762824287,0.8183399343911643,5.259176865074453e-07,2.997950393245796e-13,1.409883724059212,1.183566046108356
1.2218039587875,0.7400443936366519,8.164049791604996e-07,4.029606595129712e-13,1.318143418333439,1.273064856539238
1.839638272065934,0.7983210846383184,4.533354100750317e-07,3.327601258706924e-13,1.409462741444259,1.189917188990865
1.832150889069608,0.7809256310983559,4.493226371328813e-07,3.856300375076174e-13,1.429562295232492,1.178862826899406
1.82403436197143,0.7500739434673986,4.455734324592805e-07,4.29175490304188e-13,1.435075086169266,1.164708361154795
1.769559992053115,0.7754210015192328,4.496867210284604e-07,4.624234023953641e-13,1.407308936412009,1.186821010243304
1.805503455340975,0.8119170077676886,4.359788862386326e-07,2.856572104849053e-13,1.417505583971129,1.178476227278674
0.341086104766234,0.6201040903842677,3.168541247388842e-06,3.736273353309463e-11,1.460962840133092,1.166788612668834
1.753320202005695,0.7754781553722101,5.398448492055484e-07,7.902881072628896e-13,1.411436294732153,1.234664056669219
0.8625843999235714,0.8201040532664462,1.591128588146852e-06,1.832982480922853e-12,1.409176880476631,1.209801220628964
1.890969221859719,0.7892188380321645,4.82860223858971e-07,4.549330511632773e-13,1.390074966910431,1.200209060964493
0.3096996723176767,0.8090500669574066,3.16595629036455e-06,1.288137678691774e-11,1.419495123428163,1.160464609694406
0.2618664070959707,0.809678529476477,3.342451908606719e-06,1.080017482115884e-11,1.433268678477976,1.157211164191709
1.886935021729296,0.8141269639528093,3.732940005101519e-07,2.29900243601243e-13,1.434691048596552,1.17022216252318
1.880259094775748,0.8315491149818927,3.465798883297511e-07,1.783037618934595e-13,1.431424155175886,1.179484440765551
1.878188642278533,0.8180273627541433,3.88440010577037e-07,2.167001165259219e-13,1.411142333780573,1.189564677142215
1.917714670861778,0.8221315595495499,3.849516587976282e-07,2.333163082826455e-13,1.440067582067634,1.175967541793072
1.589394041233575,0.8275334408467897,5.548824244611981e-07,3.412229833373973e-13,1.459198003888419,1.168364624640022
1.119281545552881,0.8227996837014414,9.772410643465282e-07,7.416718161155194e-13,1.422658512427232,1.203737513841883
1.864541475328529,0.8277769119897208,4.021370270921311e-07,2.396147589907262e-13,1.428960948549566,1.189925392629751
1.840696689518044,0.8366873650999817,4.093027201289016e-07,2.078642576991853e-13,1.44164577660435,1.168607750144336
1.850949184542616,0.8365097910902923,4.424803951035291e-07,2.469298586699921e-13,1.450719352408574,1.174036409880693
1.883800353689837,0.8191862861242662,4.717301130392082e-07,3.638458435719873e-13,1.440229105356675,1.178023275826694
1.832370123214523,0.8408164810558894,4.029597250225318e-07,1.870832260162787e-13,1.416777060017182,1.185487256760684
1.8688644615922,0.8450285612932468,3.957088366851511e-07,1.684433914575747e-13,1.437181365191454,1.176303874250937
1.851611584600147,0.8428976667166274,4.035236879669297e-07,1.818163547105819e-13,1.418680500631027,1.196344130154146
0.4054139785485403,0.8214236233201349,3.32138874285546e-06,1.821495417383796e-11,1.522119985462487,1.132039994720786
0.2125496757390571,0.7897430174484376,5.298185344482293e-06,5.140155765448305e-11,1.4503325757137,1.166018447992294
0.6303048807768973,0.724432070754466,1.755577541947143e-06,1.58774091831159e-11,1.482343981467244,1.193871638851185
0.8366048465945282,0.8395237778783861,1.720481292439514e-06,1.777955499829432e-12,1.423547129853322,1.198735850091264
0.8465327984416232,0.8378629850582459,1.389291652396259e-06,1.699786619966414e-12,1.340806200764657,1.290790244435059
1.905592202863095,0.8360987674375137,4.09883166933261e-07,2.182800041976864e-13,1.438832806496926,1.18030164375021
1.912694120823544,0.831794975608694,4.003865699817778e-07,2.119457067170236e-13,1.441732135710655,1.177545753333898
1.882860021135554,0.825775860590837,4.028537192228606e-07,2.412925584547178e-13,1.46052663493019,1.161682588937535
1.574084225459907,0.8538487877889825,5.393268339787054e-07,2.848321802748327e-13,1.437853174774157,1.193190095629123
1.788714985039906,0.8236493110895228,4.415863987984187e-07,3.631749925417e-13,1.470811186839152,1.162449384531857
1.834123872255045,0.8264248866097159,3.929210276586555e-07,2.142847367177668e-13,1.431413941501235,1.185180790355322
1.814498149664953,0.8364663730898462,4.071742529893747e-07,2.60007779656329e-13,1.42293466621145,1.187798040522303
1.854439672588362,0.8328875338104206,3.997440515436756e-07,1.910598153308641e-13,1.432118096921071,1.18059291530022
1.857666262195537,0.8289681085416348,4.186831705271505e-07,2.233418517369238e-13,1.438536872359509,1.170223564557155
1.77751892096962,0.7844555287011344,4.404237080365233e-07,3.862978868635524e-13,1.42535776409282,1.178476473306797
1.829961896725407,0.8197956888850402,4.350057698856686e-07,3.514544118335851e-13,1.462486793551823,1.165817845229
1.770467042670655,0.8022947396658747,4.584977095132986e-07,3.830886371323744e-13,1.469461799714698,1.158291442281717
1.865606848933081,0.834062584896363,4.159488202717952e-07,2.424782277059235e-13,1.46685283215009,1.158486683778065
1.871531082980642,0.8020482889549326,4.230851221781245e-07,3.160485329190348e-13,1.431723828999638,1.175822446884107
1.788708109006262,0.7953094758543353,4.114223549179803e-07,3.159397171505904e-13,1.428387366425697,1.177908965976836
1.830075395877907,0.8145730740287211,4.214994687831228e-07,4.365231795066791e-13,1.413964115915862,1.210999416884096
1.844095226616153,0.8124292408355415,3.963558652633315e-07,2.543281605241124e-13,1.454055861096912,1.160495495724543
1.887443681284629,0.8066551173936946,4.010328115612483e-07,2.786417382223731e-13,1.444855938872439,1.17388658859974
1.96253070490308,0.8236110460702836,3.818486520265797e-07,2.366075270429136e-13,1.432786624035437,1.18440979517148
1.922380385863688,0.8356092149645847,3.631324015785964e-07,1.913501942618318e-13,1.425750079862324,1.195918694477588
1.449400384298876,0.6724155327250507,6.244742912607099e-07,1.302172865085055e-12,1.478643405608921,1.149549291560026
1.911601722859513,0.8228745424324931,3.700288977890835e-07,2.207811603297444e-13,1.422897255070191,1.196545434230598
1.876225118532017,0.8159010385383677,3.737077078909911e-07,2.355574815753152e-13,1.416600768700805,1.189089540312795
1.863438831162602,0.8234298498723974,3.748935424409282e-07,2.042568050451899e-13,1.432618379040759,1.177227603188197
1.876804917438818,0.8296453289428871,3.710453807473369e-07,1.807806878594259e-13,1.4533907792615,1.169333296418403
1.912050592641238,0.8165137581066616,3.853274186453768e-07,2.449126905418202e-13,1.454637604766544,1.160672643235823
1.899146361372626,0.8206722934007157,3.794294016016507e-07,2.096109186908917e-13,1.451644043290025,1.165769752359229
1.82815785773324,0.7876913468321209,3.953886399879496e-07,3.266496999641171e-13,1.449000276477882,1.167055620173312
1.796735293536046,0.7549486453924775,4.216890491095054e-07,4.651776472856856e-13,1.413596259113836,1.194748498308756
1.837173422699427,0.8075713920843793,3.774432737495248e-07,2.697568879573403e-13,1.44787446590446,1.1777408709232
1.895875149077742,0.8211786294819413,3.782127590415497e-07,2.097941837759407e-13,1.437407335930321,1.175272426743517
1.639458471954286,0.7822365623466185,4.895619048380213e-07,6.057810112540178e-13,1.473108668537159,1.163217504635085
1.78970503494852,0.8161278913161437,3.772295363330014e-07,2.449353616441724e-13,1.43130095192617,1.184389798861052
1.795968096649896,0.8126494486230326,3.601275721655695e-07,2.298706962007195e-13,1.433211735301029,1.176155661162619
1.731883432739137,0.786490716880494,3.880154303446671e-07,3.442699998949718e-13,1.459334122666765,1.170643517609163
1.717487096444049,0.7762829795362225,3.737386421510512e-07,3.326927731490505e-13,1.459765865079078,1.172979685109736
1.407730248354099,0.570937706893492,5.44162003120354e-07,1.151382354168122e-12,1.475339799995735,1.153968614487629
1.447335872361584,0.5992827711856004,5.337410277696646e-07,1.101314323076902e-12,1.473949669117377,1.149855520209733
1.649200405615056,0.6393943933596591,4.585399104843296e-07,7.254522832942752e-13,1.46556340968659,1.153444372327342
1.624443378039652,0.6437850290931811,4.660149412068948e-07,7.339604753569136e-13,1.45209649800118,1.16201867938948
1.809449724810981,0.7774583986973392,3.814339187887867e-07,3.770644341809231e-13,1.435629702984932,1.193367653065987
1.722563502647834,0.7014802747212915,4.199995138444427e-07,5.502727125613835e-13,1.448431025055219,1.173944586557208
1.701062160620923,0.7007829074298976,4.308576492697238e-07,5.851767316828905e-13,1.438383288751607,1.181173455433491
1.553855738924433,0.6147479662679277,4.994021283638726e-07,9.410395001909342e-13,1.476622433835511,1.161086000602766
1.506383214630366,0.5856668640325808,5.142114792842979e-07,9.962199184816622e-13,1.458085398265647,1.160607221115706
1.453982511391714,0.5355669742633543,5.667468860061039e-07,1.281259192898258e-12,1.456947643019469,1.164058666829172
1.50786478807506,0.5695884452329956,5.593190040064067e-07,1.22920905971012e-12,1.485815796609025,1.152575150340857
1.469385105923423,0.5729512536351178,5.316991201113203e-07,1.082004194387121e-12,1.465465525115623,1.147122141230869
1.506151400277555,0.5941848534170149,5.407541935325854e-07,1.182940756455346e-12,1.503854009489492,1.141289461710631
1.430235666250163,0.5487731635010421,5.464854224372034e-07,1.208404455427101e-12,1.469438462677656,1.161764972638712
1.555280983646638,0.6098834571875277,4.961206207035716e-07,8.996940980665849e-13,1.464356360029859,1.155263874402978
1.512171511192921,0.5847051526221559,5.067457180843323e-07,9.930668407135532e-13,1.506917181586725,1.13730156601336
1.487643377009984,0.5743183960048288,5.510349235527941e-07,1.214898424752468e-12,1.486895914136577,1.141331553815347
1.481627864525061,0.5751086327935416,5.554478326756032e-07,1.348498737233332e-12,1.467682666117832,1.169093293438435
1.545998569220566,0.5921934549421203,5.26220436223473e-07,1.078244989708982e-12,1.484218008098164,1.153905034107744
1.480195651699926,0.5938760429151179,5.480477894335513e-07,1.240596222875242e-12,1.490983391566037,1.16288490540925
0.1734718983580178,0.8140208352337178,3.794254796907609e-06,2.206337736616316e-11,1.361267447095381,1.229265702757586
0.2838100413771949,0.7373747160907791,2.395591955768151e-06,1.646178241122788e-11,1.325706769168446,1.264485304635533
1.802886773749497,0.7957045546069217,4.05901709027681e-07,3.228173768449683e-13,1.448102123092523,1.160567223839447
1.849543449133351,0.7870818887445544,4.164139961585763e-07,3.680886276426829e-13,1.475611625066479,1.159843294201017
1.84166835816806,0.7933327837940412,4.239653996454746e-07,3.758264890941933e-13,1.464525032305009,1.165854504327046
1.792590315256404,0.7805466436176978,4.391057478189811e-07,6.816496393661625e-13,1.40382628187667,1.218465130872342
1.83287712848366,0.7661116052711989,4.339040170586038e-07,4.386271745313034e-13,1.454832842584333,1.155513601920181
1.696005747220243,0.6793185498511463,4.766887432283555e-07,7.858615069774148e-13,1.46665874775846,1.159692213780912
1.58669040374724,0.6149451293366863,5.077684841538326e-07,9.494220949688387e-13,1.465120721006366,1.162173516428921
1.410162072239919,0.5823718686921796,5.939275615045054e-07,1.401050372685076e-12,1.470018485486378,1.155677046876546
1.527801718406538,0.6592833931484501,5.440351569258713e-07,1.03753495173427e-12,1.421959218884066,1.190526347655576
1.499678958576521,0.6368732218716067,5.549024566625678e-07,1.113025606157076e-12,1.436750368119063,1.179988058477343
1.577180420366883,0.6555201675651186,5.059307066872895e-07,8.575991805256254e-13,1.457908520700283,1.170039476026626
1.441867861174662,0.5886834606628338,5.5123863504662e-07,1.17606171396297e-12,1.432322661157441,1.179610116662195
1.437042378706548,0.6166942724646229,5.646336220248838e-07,1.150526680638428e-12,1.460694997879498,1.171353697978334
1.452485017711358,0.6670698696030988,6.090062889913131e-07,1.139830250437742e-12,1.445231897652389,1.193500506062676
1.504951387308008,0.693359932755561,5.884650728310404e-07,9.88055757308788e-13,1.447636624252799,1.184381478013426
1.477165695003214,0.6898891190186751,5.802531069715611e-07,9.359535584480854e-13,1.447908006386904,1.186328275780199
1.52262296136907,0.686635194683667,5.701404367677321e-07,9.680102805220495e-13,1.414046781654242,1.208879317486342
1.584107769332878,0.692001109426451,5.391249196434772e-07,8.312061407801865e-13,1.466771173348919,1.172306186434049
1.474763110389395,0.6244813150876622,6.137337753806108e-07,1.388516300129547e-12,1.442781653540118,1.182248760239169
1.450568747469795,0.6365900490428135,5.887154230700202e-07,1.072620672364413e-12,1.382142374321453,1.216810797687894
1.389676170227272,0.6294721553699744,6.612663964466544e-07,1.531044026581296e-12,1.381634972760863,1.228112491164743
1.385878987473289,0.6464068450620777,6.254564265592593e-07,1.462449086966246e-12,1.40786984784913,1.215362911407206
1.516353442255745,0.6796005834451353,6.040699023329973e-07,1.011888736021467e-12,1.429391923297637,1.190963556226709
1.436847876833038,0.5754739036993712,6.272623484840122e-07,1.415279252457313e-12,1.439953935091259,1.178428772242583
0.3597571423893806,0.5130674766463408,2.766156422797097e-06,3.271104495820175e-11,1.473559472609318,1.157040348393231
0.3379814733202782,0.535730527850501,2.984537078059312e-06,3.933377009540206e-11,1.467986481569812,1.156651876335488
1.419476990131898,0.5992909537096721,6.256473497187254e-07,1.428944703497543e-12,1.454322143575657,1.174478275892866
1.104141586971779,0.8067388887155093,8.725354901263825e-07,1.085111629536575e-12,1.423714326002974,1.205353333495641
1.456995231730724,0.660785138400599,5.798250370150079e-07,1.102300801686306e-12,1.442170053744109,1.17504792782678
1.590721943250886,0.7189896445187791,4.93279710315148e-07,1.035042278434507e-12,1.418703155758193,1.214643051741983
1.619252178022383,0.6617480587270229,4.773745057263676e-07,7.427207427863848e-13,1.457508799709767,1.154143967953252
1.614692549294276,0.6519469416130603,5.011225479935484e-07,8.684824840761634e-13,1.450104049112961,1.18114782335768
1.470736411145772,0.6169572386389187,5.895721380743549e-07,1.347787393811748e-12,1.480041426477494,1.16312590962259
1.441566739087765,0.5701769349976392,5.795059275750127e-07,1.302360991192391e-12,1.454899812285596,1.160505280443258
1.513353863985762,0.5911572069413163,5.640615092424047e-07,1.303322237594769e-12,1.442877821058099,1.17363489608918
1.490050738347648,0.7047448719263449,5.650420526231698e-07,9.162562320864781e-13,1.428493273313383,1.178515928172784
1.48163693174064,0.658840334646225,6.015009261874794e-07,1.187219039237539e-12,1.44171356717358,1.17039648485663
1.385494689147812,0.6381589733407713,6.623876529464361e-07,1.455209333530309e-12,1.460651039198622,1.152109785545255
1.532509940728599,0.695297660764386,6.096419881989736e-07,1.220346375606976e-12,1.473888183860488,1.156451922358398
1.43675767117589,0.6424869245367485,6.82120430423141e-07,1.564247264183124e-12,1.461830627761107,1.160106790595396
1.511800594118593,0.702906123623391,6.357357524497093e-07,1.285516940743279e-12,1.484369456921161,1.158605283301126
1.496971882929445,0.6795415382983272,6.531907603530393e-07,1.534334709607942e-12,1.467153346035121,1.163590164385257
0.4338833744612723,0.4540301592858847,2.67040359825071e-06,3.419525425241125e-11,1.509973680281531,1.153659105822014
1.378459371843908,0.538378201660757,6.423632044992555e-07,1.771941206266885e-12,1.454633529481217,1.161818220038554
1.558774258841636,0.6425313133947671,5.477441224992853e-07,1.018523710810774e-12,1.444087350252339,1.166713283763146
1.547408752726465,0.6070977607739932,5.46078568491828e-07,1.257124556311472e-12,1.448607795240918,1.178124915149362
1.566238021083898,0.6015380905602044,5.134070555144557e-07,9.639875201293742e-13,1.467631730778654,1.159542454502124
0.7869207174451917,0.7965297301344813,1.263170405017889e-06,1.987891259424096e-12,1.41782876589024,1.165998138057955
0.2525110949080291,0.7353277774745651,4.600830451602071e-06,5.023854337855194e-11,1.444508741609097,1.162871696754397
1.414584305759011,0.796157725527523,6.10992315903563e-07,1.062726535470714e-12,1.375906369609617,1.288732622598942
1.720368704853089,0.6814730281738328,4.65655746841704e-07,7.047856909282684e-13,1.445123054383946,1.167337808177743
1.733626000088533,0.7375956007542669,4.641952061712389e-07,5.906993919037524e-13,1.449268405229092,1.169919796527965
1.497977735241171,0.6298428503948761,6.473883673619978e-07,1.406931646406726e-12,1.436721471032909,1.164842769864212
1.781255733722803,0.8008754750018462,4.743574638490556e-07,1.056185209017495e-12,1.396644722903148,1.315748612424418
1.816445109015309,0.7590738603980393,4.877698404126437e-07,5.507199022120894e-13,1.464215732541907,1.162541288406625
1.845082960689964,0.8099087340937953,4.566362584639694e-07,4.1493852125422e-13,1.450767168827666,1.182073598920315
1.886901232220836,0.807699714734405,4.609780107215907e-07,4.323127022222744e-13,1.444513824320456,1.18669156200327
1.902444593001408,0.8420727030789213,4.421892896595049e-07,2.458240658916941e-13,1.47751777355272,1.155714576137611
1.85583536045493,0.8511489335036663,4.366645358478768e-07,2.023335478570583e-13,1.448218036215955,1.175111973848573
1.823877573935944,0.8459051048269958,4.385330056128697e-07,1.416322170538429e-13,1.453205302797227,1.195012418479184
1.874226868838702,0.8535340462580399,4.299286978359798e-07,1.791395862082559e-13,1.478811829141867,1.173134371013138
1.842560364945544,0.8396636886634132,4.476527210360176e-07,1.708558453434098e-13,1.467445251182203,1.177134589355562
1.853013709203749,0.8395539783308843,4.921392632680715e-07,2.768004112969109e-13,1.479601384033662,1.160972718465608
1.870361388766119,0.8415247401126141,4.336975639933195e-07,2.16159432994092e-13,1.471961061728913,1.16583328375692
1.832534372158523,0.8398237428372138,4.536600701979442e-07,2.138347529665749e-13,1.464572947761793,1.1630420776738
0.6096314179085239,0.5124541475022063,1.990653505953614e-06,1.879148284266976e-11,1.341564087323103,1.374048838497897
1.86934743495094,0.8288322510852858,5.026394336967315e-07,4.525538470993934e-13,1.399684733715681,1.236703102771384
1.902594500568618,0.8265725824406267,4.27514877357274e-07,2.735313115958405e-13,1.438685326421128,1.179034826195487
1.90439322228224,0.825958079979852,4.255512602411698e-07,2.607754485490012e-13,1.452119159025592,1.177202839591964
1.82129288704406,0.8391970425450637,4.630262132302215e-07,2.196910223970712e-13,1.431669502915254,1.186820902512257
1.682411609876163,0.8235686386980583,5.588029104798891e-07,2.963074467639361e-13,1.390972847756518,1.218294930429155
1.754779713231978,0.8244926788655265,5.653296173823919e-07,3.300087581950194e-13,1.364113701412666,1.242321477781348
1.808564188128385,0.8377488648883693,4.71251851292762e-07,2.341904622054986e-13,1.453666437840886,1.18168898375534
1.676532928493522,0.7809621488574402,5.252633653128818e-07,6.20663522208439e-13,1.448010950663516,1.183640691915079
1.56415360233827,0.829712550244174,5.939502756085711e-07,6.469357203773419e-13,1.538891257270773,1.133601633468974
1.777667971814661,0.8009665413968203,4.321690660815595e-07,3.567958005789237e-13,1.431184122201761,1.184319955395299
1.792160235287877,0.8430914906592268,4.447175997303099e-07,2.293931125266641e-13,1.419109437086955,1.200809714626526
1.784269990044482,0.7993318479844143,5.020552670032177e-07,4.564402642398496e-13,1.431123899018813,1.186750147937744
1.843415070877436,0.8413991099084593,3.999889943757593e-07,1.81723917712544e-13,1.425938695227972,1.196018999159658
1.826917370738424,0.8391603781204393,3.774293207723904e-07,1.028356313559374e-13,1.432387722748449,1.191434301634881
1.791182703686915,0.8354008516509173,3.996242449255913e-07,1.344416803496276e-13,1.416847182081633,1.193403721610499
1.734024513386447,0.8393301836732567,3.997877818480772e-07,1.059109904061436e-13,1.42105394539715,1.213798069194917
1.708521036465433,0.8369758981916972,3.918782763723031e-07,9.192119734125982e-14,1.411087641791121,1.205231018434733
1.607486144970506,0.8437488786065236,4.769409358256173e-07,1.944717311700811e-13,1.49075118295446,1.157353244042821
1.809293119808954,0.8389940770590152,3.995180105739456e-07,1.188290140468496e-13,1.463000592511696,1.180611553103472
1.80096957868705,0.8404449528208199,3.90206990759687e-07,1.1761755942593e-13,1.439409688644255,1.18513020567337
1.763623100673803,0.8405874628049895,3.984120809129643e-07,1.262232224245442e-13,1.440450215540308,1.190780842573577
0.06928029944474905,0.8068853629670093,1.066199337744775e-05,4.217095658264452e-11,1.420393168981862,1.205446709766677
0.04892133596129945,0.7884335979114939,7.071336543348819e-06,1.952130575079534e-11,1.455624102463062,1.204061554177308
1.7790437155542,0.7661224663987619,5.024568390481514e-07,5.903296529550735e-13,1.448845640888384,1.180449658688763
1.828739526809393,0.7854905842068118,4.723567216096015e-07,4.42429194448537e-13,1.499168064711356,1.151091340254466
1.789709191496306,0.7854007820534422,4.31060968176267e-07,3.887911542727388e-13,1.472691701280309,1.169547792718515
1.862018368134253,0.767114213283747,4.233148900287635e-07,4.273699566834815e-13,1.458096065094969,1.166024054141265
1.112745064558362,0.6905522187505158,8.800497764473211e-07,3.791840202862252e-12,1.440942631916414,1.229682395593085
0.252787662368622,0.8130903501263981,1.110786094812488e-05,6.703306533952985e-11,1.451257439374315,1.155639001569807
1.602036168415287,0.7949286873961838,6.879638713824138e-07,8.652495730558597e-13,1.430646165123813,1.188544225154208
1.644210492139292,0.7256024251732738,5.772434705565307e-07,8.988036779176105e-13,1.465198658323732,1.163796942810023
0.2345521353120419,0.7961964870179773,4.99853287409478e-06,1.245437561144084e-11,1.425403879162609,1.187906810946999
1.656424165653913,0.7010268192209985,4.963777537044701e-07,6.757209287681156e-13,1.463039095304433,1.1629087441253
1.566911512330677,0.5946542770853013,5.371325872709937e-07,1.0772518266272e-12,1.462820211954589,1.15192816678967
1.66132369968293,0.6703903217750131,4.730432658019119e-07,7.741280046130421e-13,1.443250686835238,1.175538324197745
1.044147461693275,0.67142593996058,1.077709562072834e-06,4.0450183250746e-12,1.525400144422487,1.147647581628895
1.545306193019581,0.6299748688300061,5.769202533543675e-07,1.12124776594859e-12,1.440623819341728,1.170128573015547
1.666110875535132,0.7068329222898838,5.125628754793563e-07,7.637351281437279e-13,1.449399610602275,1.17230060754369
1.673050581876345,0.7459200258501392,4.933735178069385e-07,6.769995240285067e-13,1.451237354054394,1.17343434680097
0.9123207363314018,0.8401816944338486,1.218422261807649e-06,2.431075915662365e-12,1.422624615629629,1.177689817205709
0.6942116506954642,0.817137715470594,1.782254044513028e-06,4.120673699113204e-12,1.484740862036984,1.157530228194766
1.737263744678913,0.7264783568427229,5.072334048981304e-07,7.883430218665469e-13,1.466353005806607,1.149290951669369
1.725413751660059,0.7000711492893351,5.081884840442466e-07,7.67245806482536e-13,1.479580056448708,1.147171389651012
1.686646138963406,0.7104544299036863,5.291106623154279e-07,9.038121881705757e-13,1.481282385411682,1.15078424198897
1.743416551999259,0.7342087911241463,5.019450545555289e-07,1.153782943376297e-12,1.426102842856508,1.214511228105227
1.747680548961288,0.7581364187622647,4.929425795610774e-07,5.488305439516599e-13,1.43412900787745,1.179958120213343
0.2562710004242444,0.7968026881570375,5.503325944089832e-06,2.350202829838459e-11,1.402514081781664,1.199966646752014
0.4487033450079672,0.8383675463097718,2.906383660652458e-06,1.371694060927529e-11,1.497546889325501,1.146503262958327
0.3000136100678481,0.8388706268665391,3.335445573377808e-06,5.408480875170835e-12,1.436391108323641,1.172516444235361
0.7661832887913583,0.7140722287033325,2.369743163825803e-06,1.538509087249995e-11,1.48480407386013,1.142260942876691
1.792154969086234,0.7677787425004345,5.891555243433882e-07,8.058655435979888e-13,1.401591558638042,1.203088909939287
1.708232478902194,0.6966612623007458,5.854659699476083e-07,9.923864643730117e-13,1.418695040007177,1.192340277261438
1.722191618181266,0.7642992091224947,5.663186699561333e-07,7.497878984270677e-13,1.415834670417619,1.191286060493284
1.213755175114528,0.7259973682034342,9.410040083016479e-07,2.253288751387246e-12,1.425634358277655,1.178132252957183
0.1797457156396743,0.8173184908538091,5.42387128053965e-06,4.263557934357289e-11,1.462790717841379,1.163072907567131
0.1973279589417898,0.8167045091239853,4.491884376649573e-06,8.853623943499118e-12,1.47225560071355,1.160070425760261
0.8588286584479362,0.7926712654190373,1.374283333322581e-06,1.261828992728553e-12,1.429460002571251,1.208504782042665
0.9074115932097482,0.7871521403109369,1.384452080904088e-06,1.324178254147125e-12,1.420744626854864,1.211027754262633
0.1729172824879287,0.8358099002211711,4.381862385271761e-06,1.139395457900804e-11,1.431892055658188,1.188101027778268
0.2137891102695008,0.8369516078984417,1.00882641420924e-05,4.523130563292139e-11,1.437637872859517,1.183369947664679
1.469758103657217,0.7963409276200593,6.767104583802191e-07,9.104222945713546e-13,1.450675374341252,1.174207534953568
1.780220608290635,0.7254793072641155,4.581778017202543e-07,6.460231814322505e-13,1.477330752404426,1.155514664071727
1.817016407585225,0.7169872224106671,4.365053746923867e-07,5.20293180086765e-13,1.463833510172098,1.155276867516303
1.744806296533687,0.7532111562144622,4.280057058636552e-07,4.733007884024776e-13,1.456565472640373,1.167169652813059
1.777562627816139,0.7604387406035574,4.314626923713004e-07,4.331336822736065e-13,1.465430346914151,1.161291543024233
1.742360276855944,0.7570698957360373,4.61168858012508e-07,5.031755027714529e-13,1.458721232264394,1.159347177242426
1.778274196376103,0.7466906301880035,4.742096422946467e-07,5.741292593582573e-13,1.463493011442351,1.165222917446449
1.748727024333898,0.7734387866086598,4.798821809308601e-07,5.002575019546019e-13,1.441941767190221,1.166569185186722
0.1328973689934911,0.8181484490690989,5.052612236742501e-06,2.655957033326022e-11,1.344507161380992,1.254085410752108
0.9675574914670703,0.8126257312330739,1.251535024896512e-06,1.318174432385459e-12,1.470656193964505,1.15451914106059
1.740974487540749,0.7606197265627672,5.175612125140911e-07,6.522339012055747e-13,1.462108693759079,1.15596297056523
0.3540839219844318,0.8081336030829885,2.661876448279192e-06,9.885919293058181e-12,1.458972504478056,1.15000938258987
0.7141266016720494,0.8312190913288825,3.569477465796598e-06,1.677065219439408e-11,1.469666002416228,1.165113309467896
0.4642104193575384,0.8484449247559926,2.519760312339362e-06,5.537336743198801e-12,1.495266994824429,1.1422840382156
1.378379886380033,0.8372586546775791,6.535212779257234e-07,5.6257855354596e-13,1.491012798578064,1.15561174604472
0.3930454756262325,0.455289631115501,2.179660480208411e-06,2.168302521522902e-11,1.429073102234046,1.178754414662559
0.1482527364135687,0.8164772785974367,7.996406666132517e-06,3.526713688750017e-11,1.353041897328403,1.256466422396292
1.777126074851201,0.8018617837543223,4.914093152188081e-07,4.317596923755837e-13,1.452131832334235,1.171800192218123
1.807729303164003,0.813536235855141,4.711860216263875e-07,3.230019512931066e-13,1.427690093092618,1.181017011681678
1.827145456547097,0.7862905262902273,4.585114240521246e-07,4.187330493896302e-13,1.464274927084569,1.160096849658151
1.883679627687944,0.7777968437649225,4.583555895985593e-07,4.294650417758457e-13,1.452226239957793,1.172021506098298
0.1615612439464255,0.8257027798848591,6.627039291920668e-06,2.549938046728054e-11,1.409596338751374,1.198197389343998
0.1902099174114293,0.8266973770623727,1.060935894592139e-05,9.981816105232287e-11,1.368597164710184,1.219700468845404
0.1839591069997838,0.8079749309560665,4.573806804450161e-06,4.033741797848895e-11,1.23600281469918,1.520509259251464
0.2548954342285874,0.7904487131451866,4.028081914881383e-06,1.815370126404343e-11,1.434708688740543,1.164218214783494
0.6020473141875603,0.8149039017340793,2.249259251149891e-06,3.938202707898743e-12,1.330319611629972,1.268274464915526
0.3441964333178049,0.8116263421561992,7.263611661541906e-06,2.777298275293956e-11,1.383488587156853,1.212355532002804
0.2614541655491255,0.7925864833236531,5.21119396930046e-06,9.871972716440989e-12,1.413881829455659,1.203464763775054
0.3070350154564208,0.8048918630962195,4.448334263790041e-06,7.228055346203555e-12,1.471611443056284,1.164912034787154
0.421466602548255,0.8549095484393383,4.699829224736126e-06,1.69614077446298e-11,1.444147299569536,1.157618364394768
0.3794697556456873,0.8168471436350798,3.037702608969252e-06,9.725181315160368e-12,1.448581338778075,1.158149224143963
1.852719678354598,0.8081932757792067,4.609789604075747e-07,4.060428620498504e-13,1.45718472434481,1.173364456262221
1.780865267637549,0.792021737765605,4.451955559059513e-07,4.306103992280099e-13,1.431166460839614,1.188998322901351
1.827877933480899,0.7988406996699686,3.795463500239401e-07,2.80272313527194e-13,1.429556692614814,1.184308902057731
1.897904660759347,0.814769264525951,3.919487411454332e-07,2.761674225076803e-13,1.443207563937931,1.180253189927261
1.875547092830957,0.81912099390108,3.828049177180043e-07,2.190342932416166e-13,1.433838294916012,1.169542760315689
1.8145104047912,0.8245961713288235,3.907416268459034e-07,2.173642443531148e-13,1.414262743505947,1.180669807663839
1.803208862371997,0.8479635445949655,3.771587213897726e-07,1.313436706252944e-13,1.389688474117989,1.198215157201958
1.730125125902184,0.8091160842710057,4.62228902150456e-07,3.958109717725281e-13,1.437379415972116,1.171398539125589
1.85708790818344,0.8441828101035243,3.898851293025843e-07,1.399594088722477e-13,1.420775741506888,1.186737210332545
1.824200039628321,0.8430356824258961,3.762216713300191e-07,1.719160472636112e-13,1.421640897129288,1.183871347248121
1.847513955687764,0.8423570873264511,3.964283696677721e-07,1.691919040029118e-13,1.398548424335545,1.216897940334233
1.530483408292242,0.7635006845065373,5.432526949548639e-07,6.718107808376162e-13,1.432771475360246,1.18024460888145
1.536457803291778,0.8118390101160462,5.145221564679978e-07,7.047731682883253e-13,1.375419338142399,1.221531444687449
1.752512257426731,0.8364657899180663,4.274406618165297e-07,1.28307303142673e-13,1.392575092579673,1.207169267520775
1.565370628946381,0.8242885898175316,5.201711747690725e-07,2.108037244263776e-13,1.379023724018403,1.226172303323855
1.488916205307885,0.8140706344557651,5.567821573726012e-07,2.10420666745947e-13,1.369247792267831,1.226997976611077
1.438852886127933,0.803014762612193,6.196341513919914e-07,1.728211720025945e-13,1.388228096973505,1.229108207815439
1.577605335937373,0.8237959248622087,6.393515057735011e-07,3.210452585928762e-13,1.406191204442027,1.217931157088681
1.345028679681143,0.7994971161632748,7.579444003671616e-07,3.092959393175187e-13,1.434352112946397,1.196512738365016
1.459898092254916,0.808906326256329,6.061120934774355e-07,2.454116543856384e-13,1.372968910752398,1.22358318773022
1.680752356373011,0.8258983277513571,4.460724098816442e-07,1.350224323408831e-13,1.383001227622159,1.223948371648017
1.653158211686994,0.8219172769237263,5.105064400305508e-07,3.199431724193199e-13,1.407973332602516,1.199032167611623
0.9657275450664594,0.5030713919448376,1.216860288285248e-06,6.453510072180374e-12,1.486632812966265,1.160056518020345
0.1652993676755365,0.8359099481086649,4.656987097556629e-06,1.827211693883468e-11,1.398213567351071,1.213061436606821
0.9949022215967039,0.8374425463960979,1.080502647220777e-06,1.205377910771324e-12,1.504381509832405,1.157885407070335
1.616172812997157,0.7137220090255458,5.699428248278005e-07,9.880691711223344e-13,1.403347970410874,1.183241417800097
1.69342447298045,0.8073308217930021,4.378593676118848e-07,3.520781468132772e-13,1.39065898523755,1.194462014632877
1.591728163014216,0.8086449832823438,4.929027419598471e-07,4.169429050084493e-13,1.437348470710808,1.179890725343429
1.665063299937572,0.7972567931596967,4.845114663764425e-07,3.650903816537688e-13,1.368402905743951,1.218790356624985
0.1179924150320105,0.4217812950441051,3.540825764378802e-06,6.180118030321297e-11,1.478421311247932,1.168806183429315
0.3969428588764166,0.5461052952577855,3.065731450885064e-06,3.900567495554761e-11,1.486911536410413,1.16992265712701
0.2814645592067324,0.4598351296298973,1.970804136439166e-06,1.823654811107313e-11,1.487428076210598,1.161648028358539
0.9814545060743862,0.7428796027686668,6.131375592216763e-07,1.288340131047614e-12,1.416971664611406,1.254648618293299
1.830066723062685,0.8327758867381949,2.156962925154794e-07,4.160325952054327e-14,1.340570624701372,1.303786797163018
0.1582290297430147,0.5341134384015106,1.991848515907542e-06,1.676972940269445e-11,1.435484187608703,1.179067525651084
1.329688283473609,0.8240165984727068,4.177778993152241e-07,1.088005848937096e-13,1.292305544616875,1.391772911532263
0.5491366248235203,0.8090385739038851,9.318173123971496e-07,1.404505471680174e-12,1.427721717272874,1.195281566543391
0.5712194910664485,0.7779721864335999,1.112036258039629e-06,2.823775108333063e-12,1.448252180183934,1.17990630439517
1.68387823734195,0.8173965375740013,2.734174209771089e-07,6.610288452783418e-14,1.365002251480839,1.258004545784035
1.709466336124722,0.8133660952977336,3.231537934136962e-07,1.017387359183016e-13,1.354189894932357,1.272135060950249
1.560722789119163,0.8075796924310565,3.80964810038115e-07,8.993006498406805e-14,1.364103002831082,1.266236696405622
1.594369393682978,0.8079389974459952,3.404173024739067e-07,6.896943429007983e-14,1.324853025825802,1.358418780090242
1.525993897926112,0.8019810593348315,3.586290353812039e-07,6.871669220461182e-14,1.346291967198936,1.254565009223764
1.524480894434276,0.7974170824237824,3.652830002633733e-07,7.354951165450725e-14,1.329225614357844,1.28584447339215
1.488773998974271,0.7952321247970217,4.088059088865508e-07,9.311128400753187e-14,1.308328157845339,1.325162076748194
1.455449132238291,0.7807284062638133,4.166615367941238e-07,8.828387492673945e-14,1.35559773328743,1.276590827161282
1.413199596103139,0.782539516425388,4.140398807561271e-07,7.867986250724435e-14,1.358191752539685,1.266135145016491
1.468036578530304,0.7916799387798107,3.670631581887227e-07,6.76236211625405e-14,1.36694485454096,1.250633189100224
0.7214656765599827,0.804808471182564,9.844616623683546e-07,1.47164536854826e-12,1.510748167999549,1.14163916002471
1.003213427364565,0.7701490386863146,7.004420942080356e-07,1.478436109862293e-12,1.482376176646998,1.153132833877343
1.697078174939733,0.8028318825450835,2.817867188588478e-07,6.353860810520274e-14,1.375564653946852,1.229183797596307
1.681433007686166,0.8091521491887431,2.725130660352901e-07,4.94278252101172e-14,1.398191119104193,1.207450687044645
1.692353869897382,0.8084744808249769,2.705469560984803e-07,5.063887538366299e-14,1.404921041454021,1.20672595503485
1.666725103583762,0.7999248622904788,3.100066368581692e-07,6.416852215864009e-14,1.406857159639012,1.213134336822252
1.659484305338906,0.7973634458118513,2.917415360230182e-07,5.955264588457989e-14,1.41040024019298,1.202445891641893
1.694028297857729,0.7975787084128501,2.709906524765041e-07,5.84684067091168e-14,1.363085551479572,1.240872930604223
1.691465148316822,0.8054053588469797,2.664203545862651e-07,6.30038918104907e-14,1.351614797031434,1.252113256078587
1.66100956836426,0.8016148313695604,2.615884220364541e-07,4.598305328177274e-14,1.376343032915197,1.231961674035017
1.632471094252647,0.8036756588531367,2.666823171277058e-07,4.624158224592514e-14,1.354415863010424,1.262532927781293
0.6175292055567877,0.7559491622286236,1.031321771644893e-06,2.839667205673866e-12,1.348356313954866,1.198094889333525
0.2463996267594478,0.5080575310365747,2.186842230982424e-06,2.034842357342511e-11,1.491484057836062,1.155120332390716
0.9679322385913299,0.828469418515717,6.817162102015014e-07,4.712327519827569e-13,1.43067769405264,1.18944557882914
1.024363667467871,0.8154700593223344,5.919792667237511e-07,4.045048119166275e-13,1.46542707906427,1.162517273446285
1.435471085841822,0.7806764944040426,3.105186385165755e-07,4.556095741292045e-14,1.267536575691832,1.433904022572753
1.408367177169909,0.7825969183389702,2.986983143283796e-07,3.929929781021897e-14,1.266998064286204,1.371219346128305
1.435522866404232,0.785437337683975,2.814048704669505e-07,3.704187798470593e-14,1.285581878435224,1.375489163802465
1.524485000232151,0.7931244920139732,2.18516283766577e-07,2.532621824201439e-14,1.287442125864439,1.413298251501143
1.551755809801045,0.791212120056066,2.335590981165256e-07,2.813260929492826e-14,1.288512381768576,1.352250078578982
1.561312786680799,0.7988118833722072,2.157063151446424e-07,2.413414280370477e-14,1.306474723224287,1.31458685422171
1.516388479118972,0.7943343952845664,2.135870547751341e-07,2.326134038341294e-14,1.29055179111294,1.300323234327165
1.548283144858488,0.8005773997679765,2.164407886506373e-07,2.502291757893385e-14,1.308734700901892,1.352378524646067
0.7666006482846777,0.7885568884655763,5.803114275355992e-07,9.563722224348032e-13,1.524620845147967,1.133931207900688
0.7841151147442874,0.7575966570353869,5.866423073450247e-07,9.576273172178164e-13,1.524148714112915,1.137317157002812
1.430163644872339,0.7735233726576477,2.655549795299429e-07,3.390116113639747e-14,1.285005660814021,1.38751219740939
1.337619104999605,0.7701418046858801,2.55527255093425e-07,3.309722528092188e-14,1.29143414282388,1.365624099978656
1.068406596741887,0.7698499568693533,4.424429842251982e-07,3.490002227343947e-13,1.507045976925141,1.17096807049851
1.359857150667456,0.7782090156342687,2.983118113478604e-07,3.919852931584057e-14,1.289761284562717,1.33056164142522
1.121539241494041,0.7473170595982593,3.987708056494343e-07,6.126961485389791e-14,1.281507898399183,1.336153046692489
1.098723676634934,0.7501974439999908,4.099302279490334e-07,7.266245269689923e-14,1.32879723737239,1.323450300993002
1.195360527692344,0.767910541888061,3.570855494342795e-07,5.086177836424083e-14,1.29398134713234,1.30872791686021
1.361263008676194,0.7665648732156362,2.592029632688252e-07,2.993062624589874e-14,1.306504827856283,1.331108397374065
1.348473677842977,0.7663499038194396,2.464155617033784e-07,2.697906705803346e-14,1.310773875832292,1.314444616932059
1.640846538551838,0.818862274411346,1.924858770539075e-07,4.882720322855435e-14,1.380511606627042,1.227613173869932
1.570601060082292,0.7774087302567435,2.089430454778408e-07,2.561817835760208e-14,1.364200430452022,1.25609794070641
1.641266068394841,0.7887749047011522,2.192436210701828e-07,3.607466784312695e-14,1.437231343004055,1.205260775404239
1.634987208996195,0.7942829147007734,2.072464170156191e-07,2.721510180205173e-14,1.418880998959779,1.212062639107865
1.573468838028915,0.776241945000155,2.449817598540819e-07,3.815042392075666e-14,1.401817071209985,1.219223101785236
1.557259350002719,0.7744752729885838,2.481305245601664e-07,5.23424807219825e-14,1.419302812536034,1.234502566838255
1.560885450072705,0.7776754124333776,2.407746448379206e-07,5.314206622082079e-14,1.448317346596833,1.206355697488765
1.527752946195502,0.7746559016108806,2.148481196539695e-07,4.801942910693828e-14,1.4002453280103,1.247834451718657
1.450798767771741,0.7661799637177401,2.183879332015679e-07,2.701080600461343e-14,1.380169949502759,1.238154168768276
1.499550453780497,0.764682380079692,2.152262706819403e-07,3.608202241297159e-14,1.409364647260636,1.223189669359007
1.723936872889294,0.8141051322232772,1.615422562281327e-07,2.345810334371305e-14,1.395255609202534,1.22030548100982
1.757091684982047,0.8266515564273648,1.386609185907064e-07,1.997782856064667e-14,1.417672538666854,1.200569453612512
1.741377636734829,0.8191114892136401,1.536998697811212e-07,2.635356350748799e-14,1.4202260004537,1.215307890397602
0.1530852541323485,0.5246663228420664,1.379264827886294e-06,8.329684324125216e-12,1.560158907055694,1.099315105184338
1.794697148757776,0.8321615210131625,1.309367649927949e-07,1.299099572859299e-14,1.393640288566613,1.233192294533656
1.327342172165759,0.8080460920697622,2.172319348904285e-07,6.100365628492616e-14,1.414657899224097,1.200874343661474
1.853934639584695,0.8195178284562102,1.365039382383606e-07,1.775798316847224e-14,1.455135568425627,1.175079595027708
1.860970365877078,0.8288218373839699,1.356821044516319e-07,2.55492434653437e-14,1.480463059885819,1.175631234306722
1.717862231306859,0.8170654141781055,1.72988097145721e-07,2.999156264318973e-14,1.428665356860116,1.189355255043536
1.696714393658901,0.8211528197695276,1.693201281405461e-07,3.567863491948247e-14,1.451557845367487,1.179123924786574
1.528168499855862,0.8119680898896352,1.897339214514738e-07,2.889594622216012e-14,1.416198745500938,1.204544876763977
1.66176455124203,0.803935411870134,1.93425263958597e-07,3.442288435123649e-14,1.4114957181606,1.203764381844795
1.703681431020731,0.7939974515099758,1.860733349909381e-07,5.544286345489908e-14,1.453589715554666,1.190478299992556
1.717466514530572,0.7957642982660538,1.786305573118954e-07,5.998937627385906e-14,1.455684095630061,1.180025335280991
1.754896871259968,0.7787007908033311,1.590196869027932e-07,5.375597040892331e-14,1.473063701653718,1.17032051083818
0.9106555342211569,0.8412123478963469,3.972930696388295e-07,2.973916128437763e-13,1.485710375620808,1.160863112729564
1.435183840901772,0.8136438903711237,2.362913386797041e-07,6.336558308541764e-14,1.470716881685668,1.172767019199803
1.55873691397043,0.7623914629392332,2.216163666698014e-07,1.088832884574974e-13,1.453091495344619,1.190280074003673
0.6773678609029464,0.8223841895665421,5.199306594221861e-07,3.68964484119363e-13,1.481820323014918,1.138405598560947
1.758878256223368,0.8099544220433272,1.479497611787173e-07,3.860798168826991e-14,1.476101786493968,1.155286864119834
1.784434496057864,0.7834143240699972,1.522521512278286e-07,5.355931930520632e-14,1.473633942499786,1.168753530998869
1.741962725069391,0.7673068502534413,1.596870148101139e-07,5.826529946553405e-14,1.490962776402081,1.155030391232751
1.740222661829983,0.7561326401043705,1.613355513552304e-07,6.088758319299681e-14,1.47436464840916,1.162691296608402
1.675452848439128,0.7778049767899258,1.676204509439952e-07,5.645443906230857e-14,1.492531318848572,1.149835817548038
0.1779500877635655,0.571339435732734,1.249597380758708e-06,6.592620804886939e-12,1.408134742294638,1.164643191523034
0.1042583369980871,0.589008820148714,3.420052197981243e-06,4.694329525745745e-11,1.491328746763761,1.139063136198984
0.8555440561238089,0.8264719530130494,5.318412448085497e-07,3.369749475772407e-13,1.489637528909423,1.152667737864025
0.945120479266351,0.8336520914716161,4.74726535696427e-07,3.39740552915609e-13,1.483327490452606,1.164510694560464
0.51772674996517,0.6114563159716727,9.840517835194573e-07,3.691986764915914e-12,1.474854732510545,1.171727443627835
1.376308744316218,0.771538154830081,3.078833759866869e-07,4.301396505386582e-14,1.39808246320278,1.201726557111732
1.088544500490485,0.7600437234891861,3.896626499181743e-07,6.006899634123761e-14,1.338820683109415,1.248997295719887
1.206554889151366,0.7668384629649874,3.089855039822536e-07,4.44931574058096e-14,1.350095957739649,1.24498545374153
1.326838755651552,0.7659931956496784,2.860361450119434e-07,4.24301075244763e-14,1.374052703692092,1.221463446890799
1.553999762767338,0.7726530555394405,2.778756889299815e-07,5.356356830869921e-14,1.401785488327518,1.212555197346485
1.462205374855321,0.7620518217053501,2.824372235088851e-07,4.538530425943555e-14,1.354642045574457,1.27744615449442
1.41405515846284,0.7876192081807422,2.427884357665241e-07,3.394105878117988e-14,1.373744380214058,1.252372636705458
1.893256216100197,0.8281278263996668,1.105990261874579e-07,1.363285236991495e-14,1.425848487949487,1.192778043919111
1.885580895433082,0.8245110652370434,1.075831268188553e-07,1.499539895849135e-14,1.397248864122133,1.211350835471821
1.90509417997586,0.8203285835148749,1.043488478920265e-07,1.276947405957231e-14,1.444614153554273,1.17987711236476
1.836522111874329,0.826015918304882,1.091216699174979e-07,1.285770466623535e-14,1.415620101099713,1.196984464782309
1.886918675051267,0.8297331431643188,1.091563356650658e-07,1.169232000216887e-14,1.423169475034716,1.193341234664871
1.889068758352462,0.8304677096311694,1.09584033048861e-07,1.356367763922613e-14,1.438096536848894,1.192302070419903
1.859147268282106,0.8315611863425668,1.077488177240457e-07,1.241701132393171e-14,1.428117922283609,1.180425150523287
1.936626454904278,0.8327558195282768,1.044978934783529e-07,1.091513137849357e-14,1.439290697263093,1.183586945524114
1.493307723253791,0.8190605369779829,2.153670775551789e-07,5.632644621643316e-14,1.422482495302128,1.192420353136117
1.632038930715509,0.8056260925902898,1.768745354437128e-07,2.326456864945851e-14,1.418080163705361,1.205103951338115
1.541056363418192,0.7790461551004196,1.898167907903423e-07,2.220502558846888e-14,1.409625182043328,1.226784953028923
1.738717575404396,0.8231937744564148,1.303652865394767e-07,1.419017351311186e-14,1.399927610255871,1.20689468814935
1.806959490892481,0.8292952209590668,1.124646649470042e-07,1.194791044807058e-14,1.405237397608511,1.228520857542372
1.8739486001507,0.8319085413580478,1.043800477400401e-07,1.064071485667205e-14,1.39477766410604,1.201405017908063
1.917767438278387,0.8335152249248509,1.034950995194819e-07,1.206326954821869e-14,1.36915015799875,1.239991203233059
1.866704188298762,0.8370795074111299,9.865537536822689e-08,8.24506485495324e-15,1.402444196449206,1.229880821541738
1.857957035731803,0.8333217436405093,1.034702189518492e-07,1.110127731394092e-14,1.433097820022371,1.198993555847879
1.917368205875506,0.8349749348755616,1.061769251316537e-07,1.766378669839247e-14,1.427757119770296,1.20911881080581
1.862043548941426,0.8034491723678963,1.255960566736765e-07,2.868234774335038e-14,1.476562523886519,1.164143561563078
1.897433101995553,0.8212309583179429,1.117518761836171e-07,1.796614835897832e-14,1.480364321725106,1.161720412568069
1.816645881468746,0.8317513518031718,1.009103318905523e-07,1.09317943777173e-14,1.397017694322885,1.22882086080101
1.911954175896457,0.836261880585051,9.991766361705317e-08,9.339170247678214e-15,1.439583202528142,1.1998102174901
1.880180414992505,0.8346786414761189,1.017343765560214e-07,9.270278189180523e-15,1.433695767180744,1.189531801064929
1.922949522519215,0.8382504957365587,1.034355287630471e-07,1.019202973287933e-14,1.426431008793311,1.203867145256955
1.871118173376215,0.8095004131446673,1.176916393855647e-07,2.500879257996585e-14,1.488455070197777,1.1544832363466
0.8496414065279848,0.8466180842992951,4.320918243383617e-07,9.960659196362114e-14,1.428227570111591,1.170990310988456
1.443438218026547,0.8227346902149356,1.462064766795535e-07,1.393287190335627e-14,1.389536164362193,1.221613487970509
1.567869259176849,0.832956610669621,1.333115068953586e-07,1.206025425392235e-14,1.422354744752099,1.20059455296066
1.895204198484539,0.8343917996775063,1.047973154784849e-07,1.240276084757071e-14,1.436794463013167,1.193057158275147
1.78124492110521,0.8331471913809275,9.604001536762659e-08,6.299830890962412e-15,1.372674808620056,1.239789355733578
1.829722645796612,0.8304282998823145,1.002717403152969e-07,7.90837346751587e-15,1.376005572652472,1.228153996813389
1.869346160908916,0.8339092849240702,1.051709162296923e-07,1.429517325100514e-14,1.393739193078087,1.223768096577692
1.799397017239286,0.8331772419395119,1.001693664893706e-07,1.140408283525231e-14,1.466825560312452,1.170671825943193
1.905619630376421,0.8307714333955829,1.041410815804784e-07,1.326153706278229e-14,1.472855018363713,1.163714507068313
1.83019661375457,0.8327195691279595,9.828617779247107e-08,7.076141273903351e-15,1.437768585120522,1.195216468302836
1.853118631892857,0.8349672159034821,9.543628974205304e-08,7.080876889473402e-15,1.407248070463628,1.210021999539233
1.893551440566514,0.8143916750040306,1.112944312794714e-07,1.873554329281719e-14,1.480611043617426,1.15172772060679
0.7243178643825351,0.7248635328822448,4.010268126012661e-07,5.229707749815843e-13,1.524539021718579,1.146933137502497
0.7759056542140547,0.7652247101629389,4.808542015003699e-07,6.189017562790558e-13,1.489938854261571,1.168647085465985
0.6099413496963356,0.8419085433286562,6.258448253848659e-07,6.281579137845969e-13,1.463515399826552,1.159395271808003
0.7219215285543464,0.8626592129993038,3.920768393754287e-07,1.193061610711941e-13,1.391650296603746,1.2234251611961
0.4062339095022863,0.5334072196888391,6.297813189580456e-07,1.832705770102046e-12,1.50187490318359,1.137900994256714
1.140767793968165,0.7837692130845983,2.216663910413186e-07,9.667044423411285e-13,1.251573470691671,1.676633819704604
0.6997870864209466,0.8520610894615758,4.628025874908976e-07,1.927722674742143e-13,1.487127120265867,1.166830011711554
1.656370283683141,0.8177479577243191,1.568180218189753e-07,3.720574698648589e-14,1.384366898712862,1.237509901249135
1.420166302127889,0.8134631362739622,2.226514334583421e-07,9.989584478993459e-14,1.454909709096524,1.194131146526242
1.814188453367743,0.8265780542812768,1.076949784595615e-07,8.553713979396208e-15,1.420281583061451,1.213011719673253
1.768249210269664,0.8299919556410299,1.148060950091072e-07,1.124188119190065e-14,1.41929963538338,1.21938145986644
1.584510249124993,0.8365166183975207,1.309008760407582e-07,1.581495232016001e-14,1.296293944580024,1.277499096613714
1.498619632724687,0.8165334207872477,1.987196709133494e-07,2.619310442040784e-14,1.296927429437406,1.27003639360145
1.24482621820401,0.7552545732473143,2.899061949542986e-07,3.44829419519338e-14,1.338269986298375,1.257715506678388
1.161501144700845,0.7550957252399692,3.196566158305647e-07,4.268882126976298e-14,1.371891041854165,1.253766439822474
0.9877541755558362,0.7368821455951762,3.13523348182166e-07,3.706652214551018e-14,1.293903531316803,1.284799401433994
1.046614546470159,0.7097494584635877,2.566465575116264e-07,2.577019168767005e-14,1.315895998308895,1.266506594773934
1.209084716857016,0.7138960439766897,1.805183080235004e-07,1.491166193587806e-14,1.340982876043182,1.295066062196364
1.107033267483457,0.7571045463575605,2.461232018866701e-07,2.397010735703934e-14,1.366043346714944,1.254180223409953
1.091850273805524,0.7592030449411988,2.607278579340377e-07,2.743904381722764e-14,1.35022849172532,1.269667395695729
1.093721832978343,0.730253795502622,2.615142447838604e-07,2.713176705182907e-14,1.339428394880187,1.2892711355685
1.095949317325767,0.721428514150139,3.13223518371134e-07,3.880869132708066e-14,1.30447629452103,1.287448056061688
1.145915943990164,0.7614729341109666,2.585948337384717e-07,4.757102127865815e-14,1.356162993091382,1.242348197994663
1.456581074139663,0.8199464183136401,1.634557305077281e-07,4.089030815034816e-14,1.432229029798683,1.186532094442427
1.780316045850184,0.8395116121704861,1.149117745654692e-07,2.04861283298111e-14,1.473376578301128,1.168624932532583
1.834299471454744,0.8329240002412229,1.017313505225137e-07,1.126807345306453e-14,1.382284850179928,1.24657089472012
1.836328178949066,0.8248525479540523,1.049511062129886e-07,8.890097075963827e-15,1.381236338443704,1.232609456637751
1.488127169073316,0.7821958655715672,1.900343681703021e-07,2.366234880055646e-14,1.428143621830977,1.207472435368148
0.7754130101281682,0.5587270136016392,4.668979922637756e-07,9.489864310721787e-13,1.506012331603949,1.156012409618458
1.881203161608169,0.829247698079681,1.171116942530849e-07,1.564496473317866e-14,1.388265745170911,1.245086025147279
1.877861980598211,0.8299728678116821,1.098505796493512e-07,1.2035236773785e-14,1.402276924643948,1.222196336580478
1.944036246651085,0.8358465710249363,1.086646648720585e-07,1.386540049487055e-14,1.471978532785353,1.179886497813362
1.320120643213182,0.7938998729437137,2.105616267232738e-07,4.646677716547624e-14,1.418242650769985,1.233197056367672
0.2533079776553241,0.5526996567830321,8.380426864719157e-07,3.165450401387322e-12,1.374312649956213,1.204716740447205
1.64632536756478,0.8137427190180027,1.758186104386961e-07,2.38949446559469e-14,1.420071790063479,1.212599490484263
1.187545096892314,0.8166104810699577,3.097126895523252e-07,5.891188831964528e-14,1.393043890160514,1.21533684145919
0.9140750580179878,0.8488804431777296,4.398300213550756e-07,1.434374236629023e-13,1.317558438371987,1.29183215028618
1.740067469913139,0.8271547516054605,1.204375892317916e-07,1.146602200649141e-14,1.394840927655453,1.216861437131159
1.804798648132128,0.8336301929866907,1.094942931606989e-07,1.108521757674811e-14,1.367179334643074,1.254992094159393
1.594857304990507,0.8144953933949566,1.526482270539463e-07,1.749012534072416e-14,1.390367374001778,1.22310085964197
0.6874321895488836,0.6775739982549153,4.318614706360191e-07,6.978162020127882e-13,1.417745636065376,1.185533664679843
0.7456250867092212,0.6418640137729151,4.352196454436993e-07,6.989241222692434e-13,1.404636837239085,1.202831545057992
1.500350864406807,0.7874354394680566,1.680864329593238e-07,2.125789894930224e-14,1.420085360858086,1.215479292715913
1.644686016664936,0.7922979564958958,1.341840860536991e-07,1.310347162503556e-14,1.395240238289183,1.242207025546126
1.764927351688685,0.8338700221054763,1.058044966415703e-07,8.349562060724411e-15,1.387497504007988,1.238922360563701
1.32450384465416,0.7871033306703733,1.885840159266278e-07,1.56552035363595e-14,1.370268928309991,1.231633030457119
1.2304554204409,0.753258394112657,1.981847614689336e-07,1.674559708318923e-14,1.352621877690913,1.258091441407634
1.174943058259493,0.7389793161925425,2.114223446882225e-07,1.91494378127483e-14,1.324780004856914,1.303269736702154
1.042011235072797,0.6763008337787112,2.401710110779105e-07,2.280375155851031e-14,1.262129438055795,1.407172429296903
1.078876165529743,0.6876660560240314,2.163508508973964e-07,1.828327401919785e-14,1.285151729204598,1.349335784411323
1.472385061680179,0.7391112200727759,1.617087409836336e-07,1.602281228870851e-14,1.310096572421047,1.32432704530405
1.023313510175644,0.6777830725289327,2.678318904499205e-07,2.343876490486412e-13,1.42954653877068,1.23351767978161
1.062019854299159,0.72805876366407,2.563152551989876e-07,2.486713790014937e-14,1.337543047809587,1.287107696085941
0.5536803257810257,0.765065152543342,5.268877671998009e-07,4.613648906539157e-13,1.449504440677488,1.187248539786698
1.922350217462637,0.8372401811951512,1.019493147186114e-07,1.186584438771957e-14,1.480488342689307,1.155384675556738
1.916451260390808,0.8313457279030989,1.115838199867165e-07,1.290312308086396e-14,1.464617566297208,1.167645989472953
1.869184285762146,0.836301051691086,1.024901785055475e-07,1.026749850290745e-14,1.436450769039763,1.179390307876798
1.913637671198571,0.8313475628659855,1.011384162519615e-07,1.179238305163234e-14,1.464185245613443,1.16184074798295
1.906304745097187,0.8305645411729055,1.039295119467766e-07,1.213554992253666e-14,1.457727393796993,1.167846325592726
1.905612972932321,0.8309358419032566,1.024687579985139e-07,1.219626912949993e-14,1.465763796001668,1.163811667828698
1.890424977953395,0.8332536919925889,1.075123780410639e-07,1.23352745509691e-14,1.462253617715038,1.168815965484305
1.85562577421056,0.8366220239497971,1.127975431491622e-07,1.444509569634806e-14,1.462964516961945,1.169409424368985
1.911393576309752,0.8390026156020342,1.041169280720903e-07,1.203093623374541e-14,1.464550481140247,1.167781458519256
1.885140032078078,0.8300921781339271,1.004628311231037e-07,1.060977226016483e-14,1.440408152731584,1.180688623475199
1.918980424705563,0.8300936843399391,1.024438871741073e-07,1.23913606171538e-14,1.464676506492893,1.166049182784006
1.903767397330276,0.8326495174617036,1.058816562993204e-07,1.160901706777328e-14,1.461614494811467,1.169373215332118
1.90341152078881,0.8343930042939418,1.012766603188974e-07,1.035907158278709e-14,1.490906154198287,1.148471161399868
1.83161066437928,0.8234297136046697,1.138220248451154e-07,2.396309938879641e-14,1.487739019231165,1.165724524708126
1.904658698794003,0.8361326088121964,1.0147345202219e-07,1.148521464835293e-14,1.447377884567482,1.180928329228209
1.902699119312319,0.8348290728243748,1.022908528044379e-07,1.087853121869553e-14,1.431686213563604,1.198257669131132
1.917422968649449,0.8363353791707056,1.027506860318696e-07,1.198075862059626e-14,1.44241726170239,1.184225272932627
1.939760018557089,0.8316596841614293,1.023836567094233e-07,1.182041795613456e-14,1.444720196247047,1.182114225465419
1.933232582819087,0.8295044333889752,1.035519075952195e-07,1.229886895825138e-14,1.462924952069977,1.174311562540977
1.946505640015493,0.8290850068396176,1.063405494051031e-07,1.247760633870732e-14,1.441431397800401,1.176160175300187
1.954638849765684,0.8279955319663043,1.052150185882188e-07,1.292773859269032e-14,1.458028909375949,1.16238566230268
1.928160634898411,0.8215270422615535,1.071400269944952e-07,1.383984009241132e-14,1.453858345420908,1.168274375225536
1.898765270038405,0.8276817572368459,1.044450573525354e-07,1.316226448233216e-14,1.438200631647093,1.177721679209061
1.954993851497297,0.8251079284426294,9.947821089906285e-08,1.260127215188316e-14,1.449321128817639,1.167266429323245
1.953108247767368,0.8241291956708697,9.828908444472623e-08,1.192090193166857e-14,1.448695351194353,1.174646644285457
1.095122403898322,0.604263102076847,2.980086645833598e-07,2.890235861949166e-13,1.305339704876074,1.426024726299896
1.663357017633116,0.8286588788767404,1.87212082770428e-07,6.263999618070815e-14,1.317945833686172,1.478171991506372
1.826523059536128,0.8321358338109628,1.379157908300861e-07,3.212156149359364e-14,1.327979512886352,1.381898543331964
1.861630674919614,0.8283231245134516,1.193573048926007e-07,2.029188972568496e-14,1.387201587526863,1.264238603351505
1.173199421824881,0.5116901377515981,2.520516310139278e-07,2.676641509344883e-13,1.498659008733572,1.132824373562946
1.982761843206681,0.8326057541052777,1.113241937820404e-07,1.686286557021151e-14,1.397100274137445,1.23863158224879
1.943904188647223,0.8344608442400732,1.117683611644427e-07,1.549473646484788e-14,1.408758359989481,1.223075923822949
1.941559626318055,0.8345673715541415,1.107615045938706e-07,1.425642061839226e-14,1.423652181242937,1.21328850152233
1.946311142896389,0.830651244972834,1.08958449972139e-07,1.228437614372601e-14,1.416606487349317,1.214351799285975
1.905550352985586,0.8323626084065635,1.096561537510497e-07,1.104062223765616e-14,1.402117720959563,1.22233522208962
1.914060346977095,0.8308678622333151,1.053118842166052e-07,1.009595557189841e-14,1.416849296197132,1.207871486585813
1.922567218283096,0.8342443419442964,1.049616356241161e-07,1.127441490778497e-14,1.405302961243237,1.225257675566175
1.922536626522216,0.8321408266381227,1.031948098545124e-07,9.915439826903485e-15,1.41969325709988,1.212864965885843
1.939084183984913,0.8387286810283575,1.013277503500247e-07,8.776475570474292e-15,1.397995408746936,1.228275921453801
1.917610969452005,0.8320693452712778,1.062676188460673e-07,9.317321895306586e-15,1.404216535934366,1.234348805413988
1.924545771792646,0.8303972263417537,1.027386516220632e-07,1.035966162989403e-14,1.400246972616872,1.227944304681715
1.952598800226864,0.8374429463840373,1.022374988870614e-07,1.038312722186317e-14,1.422414249973936,1.198777596517547
1.97897882502877,0.835298325416982,1.011129153271909e-07,1.047611349890498e-14,1.412556952346533,1.214025104706997
1.928487894595685,0.8356949006318853,1.063056227477995e-07,1.101260535995516e-14,1.423044627030317,1.208612604123261
1.925330573861097,0.8349067067617427,1.009177277807579e-07,8.934606697660373e-15,1.392535742271993,1.221889959198415
1.928505579927183,0.8372971390898,1.03854426495962e-07,1.037662333581161e-14,1.422038104407887,1.204674936626222
1.939873819066666,0.834864317397056,1.003175777562576e-07,9.749375106640932e-15,1.408430214256321,1.219862961789081
1.950085838044624,0.8307598861085739,9.800848992076018e-08,8.553136418433743e-15,1.425339687408272,1.192886072857487
1.909595786095673,0.8320700948135504,9.880587113803176e-08,1.105469362112305e-14,1.404989361792478,1.225278115736202
1.041617324186137,0.5220296147480019,2.756815120892661e-07,3.071076071686783e-13,1.30444123466349,1.321950618611772
1.923780242929004,0.8363692634755547,9.810891632328129e-08,8.650835761572163e-15,1.403032794249944,1.20338714979408
1.908095023818981,0.8314630380575652,9.841691358182082e-08,9.157686481090585e-15,1.415333795738655,1.196992223722224
1.896367465765379,0.8347437998606265,9.862874683945623e-08,8.61112816732931e-15,1.419347832812409,1.195861160492707
1.809199139648517,0.8326276560290147,1.13397502635194e-07,2.247880160200839e-14,1.494353594045418,1.157190023093016
0.9458441787360788,0.8023104700311577,2.982706297257544e-07,1.380416252318919e-13,1.426161832811487,1.196266928756436
0.2511834970596984,0.7785309741834328,2.368773767161748e-06,1.247909522497364e-11,1.510538691261988,1.130295245378098
0.121221252380328,0.75532397442966,2.342062529804566e-06,1.259519519298279e-11,1.503899118816964,1.1370424479085
0.142564747418225,0.8303806922821841,2.394050462959265e-06,6.92467034721552e-12,1.472551804539499,1.163805694061015
1.278617006424023,0.7921649275325935,3.432382544895717e-07,2.020209698974523e-13,1.281675088080968,1.604897145120408
1.432415957182172,0.8021545940419971,1.561445739536318e-07,1.16249191606363e-14,1.405827970294522,1.191654971879764
1.689840695302384,0.8063654896784149,1.457743385669507e-07,2.573723633215549e-14,1.486011885101443,1.149501123693278
1.646199605178549,0.7985734159220755,1.292672403484815e-07,1.829809362913599e-14,1.418293138524631,1.17737599485912
1.814523057393583,0.8319486184505757,9.918611518660948e-08,9.802872463157384e-15,1.420146636273624,1.185475583649616
1.718325602288945,0.8159965684827086,1.147196658997327e-07,1.773342165039276e-14,1.463855822891599,1.162319063326296
1.785057363009337,0.8363954693875342,9.453647516290467e-08,5.901564683497204e-15,1.396841373662512,1.231237105984826
1.936114579365221,0.8315396574147976,8.983517953375653e-08,8.242676371646743e-15,1.409220196200876,1.202066094227826
1.919980183908059,0.8288184974706239,9.207205234847163e-08,7.28614170546476e-15,1.453413612133668,1.171678283357436
1.619447702064575,0.8261273799528289,1.232505005465309e-07,1.191754658480129e-14,1.44608405604015,1.190860102668142
0.1177260319096997,0.4906770129824434,1.507307444631293e-06,9.81326774993359e-12,1.355867794437572,1.20508149390356
1.479661028155006,0.7901428536866938,2.609591086832887e-07,3.165921322163018e-14,1.358983802222212,1.265608250984578
1.285409411864389,0.8116045399056766,3.364855324867687e-07,6.698452539416244e-14,1.414434628777286,1.231098062320603
0.25373065962443,0.6937709663958103,1.586153153310311e-06,8.109922168541081e-12,1.556840607864106,1.116544290290008
0.3694231603168096,0.7844136766306844,7.181389055059089e-07,2.223348245672506e-12,1.406643911616412,1.285322682265295
1.634198022096633,0.810426611773136,1.120549133227898e-07,6.562124405556142e-15,1.345991099424222,1.252709743766476
1.727687817329502,0.821321141439082,1.026750478130993e-07,6.00478122073003e-15,1.346893714821546,1.256420014855077
1.642208097346632,0.8108337673715268,1.149853124229929e-07,7.092193115835819e-15,1.338352275835048,1.27124174408883
1.735262918415018,0.825647547478827,9.591082694577085e-08,5.587298025772377e-15,1.32403700276358,1.277067676794085
1.649024757173941,0.8217872327827498,9.386122187573605e-08,4.29063183802611e-15,1.324258288415245,1.292904374063962
1.689339739007345,0.8230543276989055,9.562319189759005e-08,4.576606285764061e-15,1.318745023187683,1.301656184894419
1.748587559434351,0.8268045308981555,9.241678192553674e-08,4.882727143846928e-15,1.323924149917657,1.294271155794937
1.736877745432853,0.8239130424282137,9.75385013019075e-08,5.345639120319245e-15,1.37397776994827,1.253886254725872
1.829384826942239,0.8258280011536643,1.007379871605442e-07,6.489173946949761e-15,1.393937860308035,1.224571049337858
1.495669372215876,0.8295883532770446,1.475010617971685e-07,2.830251109547642e-14,1.48568313676127,1.163790705643753
0.7576868771661905,0.6249994962025214,9.034853504860589e-07,3.193569236529363e-12,1.477862935347743,1.157337825795979
1.414069268713093,0.7838604850287375,4.853823887152331e-07,5.065234954799094e-13,1.441997578526481,1.17637164238752
1.126635954983263,0.7777710480019654,4.507258996523609e-07,4.420936066133906e-13,1.526199664822997,1.137809141996815
0.4900145445349738,0.4332423626721261,1.119495508499531e-06,5.922047217304612e-12,1.513703740687492,1.139205053847629
0.3622944449202218,0.814222153424377,1.649501615673512e-06,5.688811102934475e-12,1.502669453263576,1.136277410839807
0.8641076161415325,0.7272206932783504,1.025505829669238e-06,1.526254789941015e-11,1.389605950910059,1.327804917558423
0.6444112444666222,0.4949855167390851,9.330289881993278e-07,3.936977406158814e-12,1.524107634477847,1.131516896060062
0.6618367935554195,0.5876088591636559,9.047082475999724e-07,3.468282988189141e-12,1.51156298883635,1.143802196796201
1.392661706123725,0.8070568584802899,4.031046629246869e-07,2.479881649828822e-13,1.477191475548258,1.169553490110847
1.291296823526895,0.7846398948520098,3.878790970593844e-07,1.822586938172851e-13,1.275634451335176,1.466356427138458
1.178826786530365,0.7678804554516476,3.95642514031419e-07,5.864437947864812e-14,1.275629773702024,1.354678159189164
1.188484232674454,0.7956397351264289,5.25391469093262e-07,3.53081080021335e-13,1.40681038515082,1.19788654771732
1.498784631180467,0.8159319028021729,4.577658409454031e-07,2.351595451959769e-13,1.399607360700247,1.217328312768031
1.23387898286592,0.8136389533409426,5.279328601290687e-07,4.989676750070265e-13,1.433857218073526,1.203602219504599
1.173135589821248,0.8074066363721737,2.909650854127461e-07,9.295418750920498e-14,1.497505897377395,1.166257009433488
1.538101609201194,0.7948199258939709,1.698568754581457e-07,1.414011503875979e-14,1.359912163071283,1.259974226412117
1.6155404002269,0.810336825905307,1.566956585087499e-07,1.228232851718646e-14,1.384078192965011,1.232686836184143
0.4319995536447901,0.4339428651891153,1.094848825338646e-06,5.697299671581371e-12,1.450745417155786,1.183186815281401
1.446196775636287,0.7968948546976828,2.254552219664206e-07,4.677493023278156e-14,1.305932618516212,1.350107167382148
1.293079261708782,0.7743711311696606,2.546542386184881e-07,2.624879585662047e-14,1.359338891670594,1.249325493869976
1.335778789642112,0.789270467746872,2.877569468209285e-07,5.885755010743768e-14,1.431196237115424,1.204491882320234
1.19536598264842,0.7642989954033363,2.909038503521198e-07,3.341168337711841e-14,1.362487275727959,1.253282951901977
1.489271109268043,0.7770173056617712,2.526805438768598e-07,3.051005658533037e-14,1.379176667435334,1.240600008466361
1.546030663149832,0.7878780720858889,2.170441035411051e-07,2.370288339390009e-14,1.405424850312654,1.206052746380854
1.428834880683282,0.7852530278897634,2.351741249507983e-07,2.776954273127512e-14,1.376910251148092,1.247631640774545
1.478630043446003,0.79845393841039,2.299232227852622e-07,4.654216405345138e-14,1.365328674511885,1.221518221301855
1.446150886167929,0.7785407824126293,2.064202641822679e-07,3.102053332793379e-14,1.276655537792661,1.394785028026218
0.5378373250224113,0.702394713584189,6.695360494694156e-07,1.618000595874691e-12,1.460806972060419,1.170594951416841
0.3929086281613024,0.6410717053080532,7.005028712455755e-07,1.755020695874406e-12,1.451832363975911,1.170270635040722
1.02044990552886,0.6439595346196089,2.736676509025068e-07,2.85836580958875e-13,1.528183324624201,1.135949625074875
1.160138174847215,0.782280049800082,2.489606007772909e-07,1.460909185273315e-12,1.285782508989201,1.412210360834207
1.160196955619099,0.8090016131203851,2.557981910784403e-07,1.503971256612766e-13,1.376983226335574,1.21233795918213
1.29963611374511,0.7977510089637886,3.273319893786869e-07,2.629438102560573e-13,1.417710734598916,1.21759104142468
1.613043203897178,0.8025371595786207,1.933248632987478e-07,3.140401095231544e-14,1.41383969701806,1.202933432815401
1.436976303415181,0.7909977267786767,2.632265501205029e-07,5.738728689386607e-14,1.406241684931042,1.238441115247708
1.28654752158854,0.8173687083160528,2.810639763615958e-07,6.695301273011708e-14,1.357692858842359,1.247748642676445
1.35629586428426,0.7709023007671052,2.088874491870475e-07,1.812317128591101e-14,1.377183161528293,1.23911909301888
1.352521198622928,0.7650831771509381,2.057208337391724e-07,1.827865117504289e-14,1.351972904815858,1.257605450812153
0.3325531136919793,0.3792087943056414,1.225643454846278e-06,7.384062929367846e-12,1.392954145655679,1.204194032203353
1.031098330881244,0.829169759814943,3.778156181858056e-07,2.725526168185742e-13,1.484862521987649,1.167724668084016
1.655833491759189,0.8060377585836144,1.475363069091023e-07,1.557984315447788e-14,1.404654325814929,1.213274104116407
1.415157170344943,0.7847989215033263,1.960444298509235e-07,1.760266196881851e-14,1.33148495706841,1.262035680911706
1.391423407267654,0.7774169429329661,2.052880557588371e-07,1.897216758169594e-14,1.340815483997669,1.255853552879618
1.288270376771277,0.7878211470413201,1.854129801002875e-07,1.46498492481857e-14,1.309166897751145,1.283273583702479
1.115014700232184,0.8100461915771144,3.381276644267784e-07,1.590751267499763e-13,1.475709573993673,1.173148545544005
1.314192939948267,0.7850806177133386,2.484779957604633e-07,2.881887907846208e-14,1.331485988993755,1.242543498247397
1.127418549661578,0.7938979342539161,3.031310190420939e-07,6.589612657115124e-14,1.43264714184812,1.194174221785602
0.9921684549831534,0.8163192404964331,4.121896259058664e-07,1.165922017284678e-13,1.424779882163078,1.162666718687889
1.173160046983686,0.817586607307687,3.993314508701692e-07,1.327653693039327e-13,1.433332870333895,1.184381051872178
1.475657232632442,0.7784160107987064,2.131991276939577e-07,2.059111490229475e-14,1.353046784313277,1.25667418273979
1.569737331457879,0.7854851311480232,1.936145061332041e-07,1.863755953433004e-14,1.328917321854577,1.276842678362482
1.485969006866759,0.7819129186116311,1.82597892860552e-07,1.534547730001284e-14,1.344636368600941,1.253494108585193
1.332027109051626,0.803316584291069,2.443971716724607e-07,3.778389698490322e-14,1.421695315159171,1.20318990296307
1.348007344824663,0.7782351112915162,2.390756878382156e-07,2.32388332883237e-14,1.344605932210986,1.24868314974251
1.384891412123148,0.7794849917809715,2.348593588645157e-07,2.25663227344728e-14,1.327806704212659,1.286451370682318
1.343979147639426,0.7715636837865968,2.379908225978574e-07,2.322344796782769e-14,1.300287364955152,1.314101274139911
1.368073172960239,0.7801000663407844,2.38353535939975e-07,2.29272876997001e-14,1.356499309783534,1.256167093449282
1.341203372142692,0.7882190278520756,3.55531609642929e-07,8.164685354891941e-14,1.412467998624645,1.205580210617613
0.8312196271861901,0.7049610063567938,4.971936120859543e-07,7.666229835320736e-13,1.477941820509487,1.163389128407363
1.704874501798131,0.8150436924093838,1.223281621936128e-07,8.913305074375522e-15,1.385530695186439,1.224712580148522
1.593808193234901,0.8121034456900426,1.517602387525931e-07,1.552217368763319e-14,1.382528149388065,1.213904167492958
1.488425025024172,0.804820552670471,1.825532567350771e-07,1.926814295515852e-14,1.401086934253473,1.223201889216748
0.8675016834019696,0.7960080739670133,3.370470558759233e-07,1.741734544300096e-13,1.463238128066701,1.185487188826229
0.8446064307155182,0.7598953669389185,4.842918111253132e-07,5.579887658620099e-13,1.50250204633839,1.163216283005744
1.449058450942564,0.7866394983551886,1.863447670284358e-07,1.7063342178289e-14,1.347730049837763,1.242053569625315
1.32522659870662,0.76862969554066,2.000953598609758e-07,1.660146493596431e-14,1.327305891870775,1.284621529748354
1.254008338982617,0.8146447685785307,2.280263857896171e-07,3.721392539803884e-14,1.4310693828365,1.192096214897942
1.47318214159196,0.7893537825341133,1.514757150759934e-07,1.018779023820576e-14,1.364977445202029,1.229676047257745
1.505009102797275,0.796530852421405,1.417776824210752e-07,9.577904778796342e-15,1.341613660030513,1.25088561960806
1.341495306582654,0.7961603725874479,1.707603100291205e-07,1.155732469743225e-14,1.35239518191053,1.258320413753357
1.125242841983461,0.7928633407075515,3.461848554413274e-07,6.313533241397106e-14,1.408618801634153,1.193386800512833
1.258259409029401,0.7791937750187679,2.323504939352934e-07,2.101014391373019e-14,1.350724826031674,1.26121749142263
1.2255544062725,0.8009517043818458,2.122188464864061e-07,2.105654347680178e-14,1.380390898750342,1.222780476761157
1.023389805512681,0.733457163887724,5.616918439421634e-07,8.270960057005695e-13,1.408355414675274,1.206621639790995
1.282873167285146,0.8088925774052047,2.805958115120353e-07,9.907618022771538e-14,1.430232554052765,1.191238327896346
1.434575137648739,0.7917071156248847,1.908084810996569e-07,1.690628408176363e-14,1.37899624684279,1.236565361099151
1.312043567627554,0.7764834152938966,2.108457721029575e-07,1.862487517599197e-14,1.312085431893786,1.309491802840208
1.224721207228554,0.8049619456303533,2.593314650295306e-07,5.712905435464833e-14,1.45444336546119,1.173423062284166
1.289777935185768,0.7718461668297577,2.521957757921264e-07,2.931193464243044e-14,1.248520332636775,1.393834772717459
1.368200227823015,0.7785786373069067,2.442486909594967e-07,2.452630471389442e-14,1.319161456363186,1.299782916186593
1.080515798215036,0.8239370580699249,3.724942832501349e-07,1.737860046991592e-13,1.393572428632829,1.235923330157756
0.8598574125536529,0.6123804130600543,3.541738921420536e-07,4.852875503795844e-13,1.496489398582878,1.156229803451167
1.430664279679635,0.8081409055726262,1.504295125665636e-07,1.178434632468137e-13,1.229501894619257,1.701149226385688
1.473540225851177,0.7938439982654637,1.392825917505852e-07,8.408582511220265e-15,1.366031548905432,1.233267254501345
1.426942870280607,0.796884834550553,1.305971028435851e-07,7.44807930149119e-15,1.327391724952008,1.269170073144583
1.428670733723018,0.7985168719889755,1.354663242680442e-07,7.921667887744349e-15,1.326453621305957,1.270871144469068
1.450553087176276,0.7894906447512806,1.515235818442065e-07,1.003435625127441e-14,1.316974246330642,1.270052607384864
1.262227508107149,0.7731314278223221,1.780214552116822e-07,1.300094078785296e-14,1.299421544718521,1.298216435736465
1.153649308249948,0.7552810755420195,2.382976556380784e-07,2.242201491671348e-14,1.339790153892293,1.282892774526234
1.274445477830622,0.7656601949540522,2.206549235753506e-07,2.466106649584319e-14,1.330592058795792,1.280427813911091
1.1591583729976,0.7530378725814514,2.394930030467455e-07,2.760948306271026e-14,1.350276760278384,1.279913095061089
1.066582740894063,0.821092424183287,2.45984878999013e-07,3.432791066734231e-14,1.394050523007766,1.253961007868574
1.236082625881657,0.7740263842932839,2.299351024368543e-07,2.195134422972272e-14,1.366334475969108,1.249679323952699
1.110675320253009,0.7324863482323958,2.575605084227471e-07,2.966448814586827e-14,1.385980308653971,1.270040897435471
1.107026514729624,0.7264150949085239,2.805370427115447e-07,3.379738644995594e-14,1.328802060882193,1.248067294872357
1.302064078662847,0.7708341884776881,2.471462057154928e-07,3.30493890471035e-14,1.365873706948042,1.236752309700019
1.043676381108364,0.7351311585646371,3.306592401354573e-07,4.458289685234562e-14,1.339182589806845,1.267291819738074
1.057104690265785,0.7486894113206262,3.577649191962707e-07,5.449444580905642e-14,1.351036180931646,1.245177890514801
1.168673942514822,0.7555308418537182,2.453536936129773e-07,3.22270645861367e-14,1.369968813232056,1.253092684623317
0.9544404880026817,0.8037598493451432,3.701396558302557e-07,6.19580246287695e-14,1.414567429306812,1.197532991705143
1.003382760355727,0.816255533943072,3.889272527310886e-07,1.030389096190053e-13,1.435176305594265,1.188761765497775
1.475821115014521,0.7807205425991719,1.941742802001536e-07,1.753403566542233e-14,1.374423463879064,1.244762846296338
1.462521906512702,0.7767292762077782,1.762246724945992e-07,1.386113715868964e-14,1.324840443081416,1.27191812863583
1.666795019099793,0.7970052349175341,1.291168309288831e-07,9.999093395009267e-15,1.358894141762478,1.250943646147941
1.62317021754142,0.783730224980887,1.40821017065144e-07,1.09444670540529e-14,1.327564095766441,1.27411777994873
1.69639733075645,0.799263918449198,1.446513225391893e-07,1.209958939400406e-14,1.386675803217978,1.207993139712971
1.67143366785352,0.8126330935178157,1.456185930832299e-07,3.164729727656736e-14,1.451469944356992,1.1739734112014
1.714676417794922,0.7947796844096809,1.26570522877968e-07,1.022397792629873e-14,1.363287374629391,1.235825319574828
1.816533019437633,0.8086194706132648,1.196323406295413e-07,1.268174710395886e-14,1.421803493145306,1.201055494829462
1.86714379304371,0.8199971475214963,1.042995953796874e-07,1.015726845660714e-14,1.409712666174997,1.205963097328514
1.868854761971075,0.8297626873994918,1.037856147456903e-07,1.082068832858402e-14,1.430507908921029,1.196661872905186
1.656522091440366,0.8074893989283417,1.208563878283313e-07,1.060950473530366e-14,1.412491760802536,1.222510301370376
1.829195675453333,0.8183339826526905,1.113846067780516e-07,1.212576178956673e-14,1.388371861142461,1.222875495074297
1.702192001385226,0.7902352585767428,1.526349999498383e-07,2.767089467195948e-14,1.449328890242916,1.180794507050817
1.609406121744001,0.7424852494077281,1.532407418761057e-07,6.054860268451136e-14,1.478082402165336,1.179393198655541
1.578307213394366,0.8102887145908395,1.598560707940464e-07,2.928100050717819e-14,1.404070003092584,1.233370027619922
1.475315765623805,0.7477952791641084,1.939781280863834e-07,2.179494907028837e-14,1.395380663263468,1.239631671174797
1.457082449956463,0.7753535540258981,2.098319116841238e-07,2.812360660593428e-14,1.436326746558031,1.194055951397916
1.513492466777821,0.7754618700579983,1.953579216704695e-07,4.331001598977823e-14,1.475028899874918,1.152856390454939
1.257925072718702,0.5941942964486098,2.361437480507673e-07,2.221540645273403e-13,1.469541725776149,1.169467546126903
0.8191501970410922,0.7856528888617105,4.609062434536516e-07,5.317575999216734e-13,1.455971366154315,1.183861130549945
1.289108198712679,0.7722111886588707,2.880483619480386e-07,3.570029764409996e-14,1.385215396492985,1.224036121771533
1.15401624907952,0.7329536316092092,2.941113357402998e-07,3.836045799170943e-14,1.333347142851287,1.287413524625048
1.087052958721371,0.7373429405923939,3.692409968284655e-07,5.358962460597101e-14,1.333067311976885,1.249686380598952
1.116842619138073,0.7538105523496308,3.507405685224429e-07,4.884144014711425e-14,1.354863646789345,1.255651217274765
1.455366433343706,0.7739675525505886,2.027358418985134e-07,2.318114385065323e-14,1.388298860124366,1.240934116102923
1.360327761905824,0.751888204238057,2.107528117563293e-07,2.111690484583574e-14,1.387818242183221,1.232439545399437
1.428372105682324,0.7966545200817139,2.146963890252508e-07,2.839840096976998e-14,1.434845013140818,1.177520509272718
1.714500258123879,0.8235234545599027,1.264134263787294e-07,1.315979754828311e-14,1.445782096903383,1.18264913405975
0.6202355756696444,0.7613891000729552,8.565390493676315e-07,2.08774674411698e-12,1.477313520354271,1.16530521129587
1.463559711776532,0.7999850305068793,1.810119140975265e-07,2.296507812473331e-14,1.308940909007797,1.336723407338737
1.418658200716665,0.7903129604624581,1.868230274317495e-07,2.007602770526506e-14,1.348230151386582,1.231927492720356
1.639012696009447,0.7998660818075347,1.297064565307673e-07,9.461393551250234e-15,1.326555874522622,1.289928342220213
1.808869768029503,0.8149806284670262,1.06087752154474e-07,7.570308295629262e-15,1.367257660761867,1.247327337093189
1.755466240408152,0.81476113141508,1.054763905441168e-07,7.022884315979026e-15,1.347220585701946,1.268171192489729
1.816981028160682,0.8234140160508575,9.632830729481433e-08,6.846151626854354e-15,1.346747809055281,1.257009009345453
1.778029738887312,0.8215697902527491,9.236514687064181e-08,5.856776370809275e-15,1.350819742017936,1.271300029968242
1.761736875924175,0.8267477133934944,9.009770673580684e-08,4.874167973915046e-15,1.38041900415866,1.233182367753304
1.690905301100376,0.8237339839773343,9.072313314635519e-08,4.745505857475358e-15,1.359290289525953,1.259940472102379
1.683984179542542,0.8252618747754872,9.292208036176551e-08,4.480411543174825e-15,1.355183720847738,1.253862816002779
1.830226738484416,0.8328069540061226,9.076195278331405e-08,5.504938341326213e-15,1.392633245112798,1.236883737918771
1.685899892012563,0.8299762834397524,1.008960569719068e-07,5.48392888314897e-15,1.385538884832059,1.250207320382953
1.738008744496684,0.8234954508058743,9.858462385357331e-08,5.957106338094622e-15,1.35410556230286,1.253581145882768
1.703310791551751,0.8267979237785061,9.916080712907732e-08,5.456258341009338e-15,1.352730137371249,1.26666955439681
1.749024954544528,0.8247000461130897,9.175259125416675e-08,5.161195745229661e-15,1.333199752767156,1.262480132922331
1.778554659366554,0.8247987846597321,9.679831441698772e-08,5.791044845009873e-15,1.392744784439895,1.234514085788567
1.737949713345644,0.8259254577890469,9.226281128740701e-08,5.067941790480164e-15,1.385101952520425,1.258700360469766
1.805061215446431,0.8337393143181273,9.199712429096214e-08,5.628664737897847e-15,1.389533676148102,1.230413438887366
1.870966536341609,0.8303779704419987,9.09660381633365e-08,7.095679278557245e-15,1.448419216736986,1.185856892582245
1.847027613647456,0.8303353637812165,8.928929163689474e-08,5.487177106327925e-15,1.377137909021819,1.237025173511013
1.847619675459671,0.8320999031388027,9.246933409664672e-08,5.832933384963155e-15,1.40585328206306,1.219121969846709
1.841844551027444,0.8301843571654052,9.120723447463044e-08,5.62629525403817e-15,1.408820202742125,1.217164566909372
1.780813059219619,0.827523363463374,9.363063832368366e-08,5.548990175458545e-15,1.381471628715883,1.221153867243879
1.836002574938953,0.8311053844109734,8.993055361321083e-08,6.001517634883805e-15,1.388720550312267,1.231860865820535
1.761211290895962,0.8266452702096637,9.170924281179473e-08,5.071096630360771e-15,1.373979257624722,1.240751517142496
1.770542345202725,0.8312582590225406,9.62628082078671e-08,5.778603500379021e-15,1.448262927696591,1.189466922016235
1.844966885086519,0.833159078872687,9.51410276950787e-08,6.226806409008611e-15,1.415605370197908,1.195958559501308
0.1365673261509159,0.3247347696021148,9.75335232130871e-07,4.727866050600625e-12,1.412532157450242,1.189433486697304
0.4515711363641629,0.3996291871504883,1.013392673218437e-06,4.87399410653771e-12,1.353809851200164,1.224726899415621
1.457426935568422,0.7884399556411936,1.793368031618105e-07,1.571321718298507e-14,1.352486830561707,1.251954832131037
1.579694825482718,0.7930809750237212,1.499720344512866e-07,1.390231386443381e-14,1.332136448659565,1.27615998307967
1.660632803571333,0.8144692658611135,1.483197229969035e-07,1.382415569817513e-14,1.418566138933899,1.197759378649945
1.444111730506412,0.7847309341948006,1.937671033361404e-07,1.939068019805748e-14,1.343690793581416,1.245226778716823
0.9660526157633922,0.8198845309781917,4.006050732033451e-07,2.295484696689106e-13,1.443081733027511,1.185517456947569
0.679439397553788,0.7777186206948015,4.592496949076018e-07,4.330050951850885e-13,1.433830398679524,1.213691908048156
0.8572144085547379,0.7650201426699829,5.686100502320783e-07,1.136402733166162e-12,1.411575275623245,1.203995345293629
1.512172305059541,0.8084319396266038,1.789914104714257e-07,3.493981863208534e-14,1.429985138938331,1.195318510474191
1.590730268714271,0.794928089092562,1.523346118922837e-07,1.343973282933976e-14,1.375458425417905,1.228702911776671
1.610827824604075,0.7982720292955748,1.521697253602049e-07,1.264046456810249e-14,1.37064118397462,1.243712435041539
1.596492952370516,0.8040377565738149,1.390607435718684e-07,1.030242643642783e-14,1.396710687715024,1.233977651011803
1.382173102955122,0.7771435711888641,1.769272608584846e-07,1.404493728497729e-14,1.3490905942992,1.249518199627949
1.193449146442521,0.7510953680840974,2.387025350282681e-07,2.444688297758957e-14,1.309224169843224,1.257237537256044
1.068387513109309,0.7652574512411555,3.027506889874034e-07,3.475747536186993e-14,1.348406976161433,1.252338002870947
1.030854289210654,0.7964084693588007,2.6365537476562e-07,1.060428578682435e-13,1.315226602456504,1.278965032512255
1.271221668625239,0.7603287975138605,1.66507507740417e-07,1.282908923745914e-14,1.36485442806202,1.207177106340246
1.562504243089314,0.8274470469838798,1.360150161465636e-07,1.940933596432989e-14,1.416313778429063,1.20158466833532
1.730014274762883,0.8173322088011997,1.130306602799973e-07,9.2268274418226e-15,1.39648594049537,1.214643414785982
0.895070041782965,0.8050184390772908,2.912226855503943e-07,4.019481469027736e-14,1.48500444400747,1.142964170288413
1.843860079026528,0.828376042221715,9.817988545979172e-08,8.762381289307515e-15,1.410676632442702,1.194986574762601
1.831387028028599,0.8264347979523865,9.517751244079234e-08,7.835775811955444e-15,1.393148840313455,1.209977658568832
1.85368199788866,0.826500912825762,9.540279143590876e-08,9.041791231846002e-15,1.412431135494128,1.20289660514734
