sample_entropy,shannon_entropy,rms,zero_crossing_rate
0.281488055147725,0.7524249361616491,5.385634953527439e-05,0.1133680555555556
0.5963908582083669,0.6552338489017153,2.137372906117679e-05,0.09539930555555555
0.57592823572131,0.6274636595111591,2.257734628731631e-05,0.09765625
0.7203845100356764,0.680926999543781,1.992635133940839e-05,0.1166666666666667
0.8361247647461916,0.6610403704266966,1.482960672407399e-05,0.1048611111111111
0.8756276684701323,0.6139944136383877,1.342911495531982e-05,0.1073784722222222
0.2016839616790977,0.7889144149799768,5.747260373210793e-05,0.1262152777777778
0.3203341715505025,0.7908777770463918,4.349435940623574e-05,0.1144965277777778
0.9586243292090781,0.6236651199189582,1.156995193891062e-05,0.12578125
0.5495973658158225,0.6256113785580352,2.3990339769693e-05,0.1155381944444445
0.4085727145243856,0.8017147539445508,4.091310986790636e-05,0.1115451388888889
0.4330256249222981,0.6406952876968808,2.538779992204822e-05,0.09375
0.5697596445061509,0.508058164934757,2.116396634612377e-05,0.09123263888888888
0.6579769388834558,0.5130313493633671,1.52659723489964e-05,0.1002604166666667
0.756370364610963,0.4497626894585673,1.235485140114612e-05,0.1254340277777778
0.5117384767729642,0.574780736208966,1.83551104780163e-05,0.1024305555555556
0.9320413350891315,0.542301535833201,1.062514657205723e-05,0.1045138888888889
1.126358105384291,0.5941374521909112,7.664569265179561e-06,0.1496527777777778
0.5972615795782146,0.7042377706383948,1.570066552303741e-05,0.1487847222222222
0.6156085968037561,0.4321772151952091,1.696603252557241e-05,0.1245659722222222
0.3601417987802949,0.6260325465966764,2.94474914127551e-05,0.11953125
0.9508550049607369,0.5387906843590979,1.022161138146227e-05,0.1529513888888889
0.9153401982372266,0.5885324330397143,1.152586286800988e-05,0.1234375
1.059802314868482,0.6529761346657642,8.799866847148388e-06,0.1498263888888889
0.4056729220263931,0.3794366194114092,2.191411823294533e-05,0.1211805555555556
0.9327244559896001,0.4969539111636782,9.9673257068231e-06,0.1277777777777778
1.058885644625363,0.5613287737444236,7.844073799962702e-06,0.1510416666666667
0.970560653341393,0.4933315466119307,9.616512419798063e-06,0.1295138888888889
0.9253560491300807,0.4627493214248267,9.65754135106499e-06,0.1247395833333333
1.043330641284931,0.5425926438536801,8.470339398028352e-06,0.13203125
0.4251447120844,0.4426286702193065,1.917357461342608e-05,0.1697048611111111
0.3855858108863466,0.4216216441621057,2.157833932950153e-05,0.1672743055555556
1.000283123001616,0.5285951963469836,8.961949181197346e-06,0.1682291666666667
1.035559417251479,0.5072674869266052,8.14768553519939e-06,0.1946180555555556
0.9960914058900324,0.4808761716036183,8.565367758943094e-06,0.1690972222222222
0.9790103623973259,0.4981997602226185,8.779267018123853e-06,0.1733506944444445
0.8533310304102922,0.4526908287565339,1.066535888194396e-05,0.1422743055555556
0.6476792648291178,0.3954717734822912,1.358096760078163e-05,0.1258680555555556
0.8307455407487065,0.4508458587054775,1.008465299057197e-05,0.1658854166666667
0.2568512064739816,0.7193981931972115,3.704927859751836e-05,0.1172743055555556
0.4323604885195162,0.7663816561899601,3.296780160585556e-05,0.1190972222222222
0.5548892233575335,0.6497785625623134,1.810821423389945e-05,0.1434895833333333
0.7146461565899846,0.6249758707432007,1.411539537360992e-05,0.1438368055555556
1.264914084989822,0.6669648604675296,7.072914258118367e-06,0.16328125
1.167203535677349,0.5204787527184006,7.515494074216811e-06,0.1471354166666667
0.945418179215726,0.4368896328037343,9.686103445406526e-06,0.1358506944444444
0.8382908948698189,0.4117843296746597,1.026113353996089e-05,0.1212673611111111
0.5311036313130364,0.620113302538824,1.610095819623315e-05,0.1063368055555556
1.036596497558646,0.5493574758175026,7.38983578163027e-06,0.11484375
1.136086868598313,0.5465487127608311,6.46130768170758e-06,0.1282986111111111
0.9809131326152372,0.4882359741732006,8.318970846343284e-06,0.1118923611111111
1.181418105844936,0.6000556474087961,6.553767560157391e-06,0.1311631944444444
0.9954782650267939,0.579769206833813,8.210034120581797e-06,0.1384548611111111
0.4328080628009573,0.6389333064274925,1.931780020271025e-05,0.1246527777777778
0.3360372726109636,0.5998530436582256,2.599041559357209e-05,0.1034722222222222
0.8868021485022856,0.4600054372210832,9.388195004118891e-06,0.1176215277777778
1.023723132357242,0.5022070355372076,8.30493325195359e-06,0.1386284722222222
0.8374724081381545,0.4817492990325816,9.91697088068435e-06,0.1282986111111111
0.5146429878166572,0.6171474114208145,1.62008229700376e-05,0.1251736111111111
0.4994066056798538,0.6525933908578381,1.628013345397155e-05,0.1201388888888889
0.9541219312162995,0.4635680155830858,8.466513042233098e-06,0.1378472222222222
1.121552399042416,0.5390623796100966,6.862772889295241e-06,0.1576388888888889
1.329289447733578,0.616151610924007,6.087578216258147e-06,0.2013020833333333
0.8894190857371419,0.668549978948989,1.02221334287137e-05,0.1847222222222222
0.7728407702373945,0.642463087778698,1.169077129535295e-05,0.1269965277777778
1.250656279505202,0.6272147628254641,6.363490579517588e-06,0.1785590277777778
1.097084707713093,0.6422199695670645,7.506967747159067e-06,0.1619791666666667
1.247070842430294,0.6210670756833059,6.104850106696561e-06,0.1848090277777778
1.493218042542986,0.749381192099474,4.818116826144527e-06,0.2033854166666667
0.5268288841023949,0.490143012196044,1.631997067097405e-05,0.1977430555555555
1.436762436038487,0.6906110706526647,5.765547364598613e-06,0.2176215277777778
1.54858871222806,0.7801106648009526,5.098226852608581e-06,0.2287326388888889
0.9741058635909967,0.4963512600061587,9.458465000044127e-06,0.2166666666666667
1.301482249110721,0.6349526796844883,6.559535968371665e-06,0.2097222222222222
1.478930152671173,0.7127261447822714,5.552894097844247e-06,0.21484375
1.447758214053284,0.7073378492707283,5.71908541190331e-06,0.2331597222222222
1.309798444089584,0.6584526615840155,6.893562017152258e-06,0.2356770833333333
1.268170510345773,0.6572409136339098,6.997097522970154e-06,0.1881944444444444
1.590268233443742,0.789997501914202,4.926799577874221e-06,0.2230902777777778
1.553781903506785,0.7686190054659802,5.347813607289233e-06,0.2144097222222222
1.361975966403999,0.7027108600621634,6.371854044578636e-06,0.2155381944444444
1.333109053808437,0.6712293197571396,6.575084642982247e-06,0.2234375
1.320197299497689,0.6347709727936155,6.86327544993408e-06,0.2153645833333333
1.508834140698124,0.7447825792249362,5.845241458453772e-06,0.2317708333333333
1.654501712636539,0.816901451160869,4.89171195896559e-06,0.2401041666666667
1.49279037595793,0.7147291080066055,5.564922225704745e-06,0.2037326388888889
0.860580902442926,0.5272251047538322,1.168624688116778e-05,0.1985243055555556
0.8225087064606423,0.471038422820302,1.312192681712379e-05,0.1764756944444444
1.154343684115252,0.60590500304219,7.642489808336627e-06,0.165625
1.209972165314426,0.5905996881005652,7.736876753637053e-06,0.1881076388888889
1.222262402879125,0.575695920720899,7.479212954318832e-06,0.1917534722222222
1.279815409221315,0.6225585833001124,7.17321898747929e-06,0.1966145833333333
1.221554840694601,0.5857104124057233,7.731416200373039e-06,0.196875
1.347447349364265,0.6525379852694331,6.866711366053559e-06,0.1939236111111111
1.106128793781634,0.5607936541207464,8.977004455356271e-06,0.16484375
1.237434850800456,0.6139091518410297,7.84116050865923e-06,0.1868055555555556
1.145585692630934,0.5716192565023912,8.54715599715278e-06,0.1692708333333333
0.9945903808998665,0.4980131409403756,9.987950503860628e-06,0.1558159722222222
1.033425218233492,0.5696723425652493,9.373046880902162e-06,0.1605902777777778
1.186383515037679,0.5775326602836912,7.705277880294194e-06,0.1684027777777778
1.076272870850725,0.5301120446590739,9.222649266157836e-06,0.1471354166666667
1.056726256736912,0.5140960977791339,9.60495175396588e-06,0.1360243055555556
1.118707412700193,0.5762926066495379,8.770200119406585e-06,0.1327256944444444
1.136107220075016,0.5780623033807889,8.610898341955622e-06,0.1381076388888889
1.059462490010024,0.5433720889128955,9.282940244140703e-06,0.1462673611111111
1.052103462275846,0.5491687209735434,9.051211325818281e-06,0.1530381944444444
1.120680877249081,0.5675532548321268,8.842410919225092e-06,0.1712673611111111
1.120426211642836,0.5431190603704116,8.944010443703415e-06,0.1592881944444444
1.081791785434563,0.5700390837037562,8.999744220663216e-06,0.1465277777777778
1.131701581417193,0.5749627622259857,8.309997745550716e-06,0.1623263888888889
1.36159679115783,0.679389862559825,6.530942520888173e-06,0.1836805555555556
1.201816501667162,0.6635417279030752,8.481392710050314e-06,0.1553819444444444
1.51886328488703,0.6881597797255001,5.923751618665632e-06,0.2313368055555556
1.244489367416564,0.5740714470609306,6.972005480904273e-06,0.1966145833333333
1.126701296784916,0.5168228764368407,7.793729108044154e-06,0.16015625
0.3528720583304698,0.6501398821696582,2.511671814888775e-05,0.1806423611111111
0.3078112203105296,0.6868074503363063,3.327283419983427e-05,0.1176215277777778
0.7064915994257844,0.8413966669917946,1.259303922380834e-05,0.1686631944444444
1.359253393303279,0.6547522615347217,5.862796816979713e-06,0.2115451388888889
0.7205517781339091,0.555500822389164,1.355682310451643e-05,0.1355902777777778
0.2170377361422383,0.385489430640355,3.401055420059058e-05,0.1183159722222222
0.8639311131963012,0.5128336126458279,1.071632737725664e-05,0.09973958333333334
0.8311285717154098,0.5062125693015681,1.040893560145864e-05,0.1198784722222222
0.4345407776246893,0.557687195314969,2.006912269099714e-05,0.1020833333333333
0.443025099447957,0.6455290264000061,2.172868477660701e-05,0.1325520833333333
0.6881040558693331,0.6697684210097775,1.325369541562974e-05,0.1557291666666667
1.163075316695812,0.5194558633033408,7.250469532190463e-06,0.146875
0.2828277542595414,0.7402948880340768,3.045178034315275e-05,0.1422743055555556
0.2599419558066296,0.7703477108780756,3.417113005086108e-05,0.1565104166666667
0.9199680895151424,0.4858372913501278,1.042676981489707e-05,0.1538194444444445
1.191366530392273,0.5482229049812033,7.727628977378631e-06,0.1553819444444444
0.9110165481984597,0.4565368385222463,1.001789732933634e-05,0.1232638888888889
1.011525468852185,0.4561289471820357,8.767228351079401e-06,0.1220486111111111
0.9907264171385286,0.4893134927645592,8.728119514374846e-06,0.13984375
0.971115998052371,0.4620281838856006,9.38949497851716e-06,0.1393229166666667
0.90012625722146,0.4743376533529837,9.990105948153302e-06,0.1423611111111111
1.182570726862137,0.6198213968490992,7.330881965525496e-06,0.1644097222222222
0.8826995476635807,0.5075055141039486,1.070205477309649e-05,0.1669270833333333
1.309681383344143,0.6775389003170169,6.994240004920167e-06,0.1795138888888889
1.042296683981169,0.52674234249831,8.684224732365848e-06,0.1477430555555556
1.130706796302747,0.5515977210638567,8.184620904995621e-06,0.1735243055555556
1.091587157406197,0.5738697300687814,8.714551470342131e-06,0.1706597222222222
1.115917646395491,0.5849287748452141,8.575909515933874e-06,0.1612847222222222
1.232787264012474,0.6469493936408397,7.46558596047466e-06,0.1732638888888889
0.7271521364606962,0.5700330629388549,1.289209106680499e-05,0.1099826388888889
0.951972811085265,0.5130593259870191,9.626676136799646e-06,0.1280381944444444
0.5741257752259442,0.7523172838738141,1.668805920473089e-05,0.1288194444444444
0.9214486158285096,0.4699073220325781,9.820316566674107e-06,0.1357638888888889
1.004193529428268,0.506731463194808,9.237057540209815e-06,0.1486111111111111
1.029814722999584,0.5154866390399228,9.152024272343294e-06,0.1441840277777778
1.048982840615991,0.5371663922283947,8.451785753251855e-06,0.1668402777777778
1.045973733515568,0.5445882901337109,8.72592879066201e-06,0.1591145833333333
1.01530393179572,0.5230324784252096,9.27560944335119e-06,0.1628472222222222
0.824555787221336,0.4261104896093069,1.144215073457094e-05,0.1453993055555556
0.815809603591932,0.4298709041802723,1.138634746895812e-05,0.1454861111111111
0.9831292907741973,0.492501508777366,9.434918866660223e-06,0.1481770833333333
1.104584116014116,0.539604812999788,8.446361914163943e-06,0.17421875
0.8464331369227237,0.4415525062428565,1.219304114873443e-05,0.1414930555555556
0.7086652350602224,0.4348833992115739,1.456725916117375e-05,0.1251736111111111
0.7920691084003635,0.4284457018387006,1.246179943906747e-05,0.1552083333333333
0.8228123856805276,0.4465658104708005,1.243477365822305e-05,0.1479166666666667
0.6447623370337553,0.3893285625444388,1.572794645173251e-05,0.1147569444444444
0.5400357090044735,0.3986787032888008,1.856713900928959e-05,0.1066840277777778
0.6394244248167527,0.4045854707337145,1.60478993425109e-05,0.1096354166666667
0.7836760376480462,0.4441344776748745,1.226503367806987e-05,0.1207465277777778
0.6505710615068753,0.3630210085464599,1.584511443782673e-05,0.1188368055555555
0.5314324908212735,0.3599935003528996,1.983760143239914e-05,0.09340277777777778
0.5655033946352171,0.3867965480150239,1.54674807704156e-05,0.08975694444444444
0.6420996911931038,0.4040403200966209,1.379835144157234e-05,0.1217013888888889
0.7533419688457235,0.4165932548858133,1.239093317550009e-05,0.1375
0.5885547129797318,0.3691424412139424,1.510051607607749e-05,0.1411458333333333
0.9131877754449603,0.4664060690955685,1.04016181754358e-05,0.1746527777777778
0.7229734728004794,0.3922212972519315,1.328725027833353e-05,0.1292534722222222
0.6299499747104093,0.3914317975927169,1.571981896484386e-05,0.1131944444444444
0.6809983179125905,0.3777167198582249,1.492484067367627e-05,0.1177083333333333
0.7039017855244601,0.3962160388433345,1.45344906313706e-05,0.121875
0.7632813705276897,0.4012512252442875,1.270966138517449e-05,0.1131076388888889
0.5674535564643287,0.3539619804361014,1.821561972082405e-05,0.1022569444444444
0.6150452041854461,0.3654810894169835,1.758500956302682e-05,0.08671875
0.6562271034956677,0.3786335186967715,1.603153105066936e-05,0.0921875
0.5070586423925014,0.3385522401129413,1.988525162341475e-05,0.0765625
0.5923688865149963,0.36882493104126,1.712982879622752e-05,0.1019097222222222
0.5271920257889717,0.3379519298887518,1.86924644316744e-05,0.09444444444444444
0.4905048775832731,0.3393346341370978,1.97839143955439e-05,0.09270833333333334
0.5258317101282853,0.3571376711131565,1.935587369120284e-05,0.1108506944444444
0.4686397072656242,0.3459324701258535,2.195114650752956e-05,0.08012152777777778
0.5211225396900706,0.3513957277409143,1.92372400804442e-05,0.08576388888888889
0.5080466154512245,0.3725403136359733,1.926591739635462e-05,0.08385416666666666
0.4490145274968604,0.3590894103769525,2.208042721458048e-05,0.08237847222222222
0.5087927205375611,0.3608134512367887,1.984844740666561e-05,0.09131944444444444
0.496952280902253,0.4320902814699195,1.78852445458942e-05,0.0842013888888889
0.5243371612633775,0.4285842349811289,1.640708596379065e-05,0.1068576388888889
0.4606819156208731,0.3890330087695631,2.060511759159286e-05,0.09470486111111111
0.4907753155251699,0.3585161062038852,2.037212050723126e-05,0.09357638888888889
0.5898670812113934,0.3882940183126735,1.696414786380289e-05,0.09427083333333333
0.5474444700512474,0.3618795283293098,1.823698450597578e-05,0.08836805555555556
0.6117983538533039,0.3773541160110759,1.515741545755149e-05,0.1057291666666667
0.4966962406343636,0.3456062214889821,1.912182864645887e-05,0.09505208333333333
0.6758168700026101,0.3982000011491797,1.435915097290459e-05,0.1041666666666667
0.4973243706605515,0.3649167486211,1.890290001074865e-05,0.09175347222222222
0.407823380840446,0.6008061293421132,2.848470181169331e-05,0.1120659722222222
0.7790193205203703,0.429260928506274,1.053886367219834e-05,0.1086805555555556
0.8675545334499541,0.4994272413213097,9.53818997252831e-06,0.1134548611111111
0.6844396599147273,0.443796872897503,1.2583660515122e-05,0.1103298611111111
0.7579230028864243,0.4573177851822405,1.206943646524751e-05,0.1290798611111111
0.6063280491857773,0.5356922655974292,1.402128351822802e-05,0.1267361111111111
0.5460631153388242,0.381828956021626,1.521469780368047e-05,0.08289930555555555
0.4664290986960199,0.3794345222698039,1.782995668502416e-05,0.0875
0.3750161928106568,0.3554943254201332,2.245075877308707e-05,0.06640625
0.3970050015592112,0.3423126000102544,2.122058270795394e-05,0.06588541666666667
0.3892647663618826,0.3758363522000455,2.204987238767555e-05,0.06744791666666666
0.4820801984436768,0.3895834560969321,1.869160044687107e-05,0.07916666666666666
0.6573546254094412,0.40259142354933,1.451682314350604e-05,0.09288194444444445
0.8313984452514303,0.4620234276382676,1.06710905447778e-05,0.1529513888888889
0.9169815419948428,0.47565242922291,9.916800537475388e-06,0.11953125
0.9012541950825742,0.4234990154258048,1.078339787132945e-05,0.1245659722222222
0.7494889447504474,0.3957606363130255,1.309012318162678e-05,0.1229166666666667
0.5543206471928341,0.4429384347120124,1.547649809024196e-05,0.11875
0.906031967341136,0.4652101302576936,8.648811289522234e-06,0.1354166666666667
1.069655986421567,0.4976082813224976,8.339135849596984e-06,0.1364583333333333
0.6688335415202306,0.388413691025991,1.263258374064178e-05,0.1114583333333333
0.8386538957292058,0.4563131607449411,9.816220036771713e-06,0.1517361111111111
1.07000958937838,0.5196436422244363,7.839894045912968e-06,0.1661458333333333
0.5481052459548548,0.3513231290808885,1.574838481070795e-05,0.1306423611111111
0.4630534534317155,0.3315465315340843,1.902521396522023e-05,0.09644097222222223
0.4681423465895532,0.3232575202409732,1.868148696158274e-05,0.09973958333333334
0.5302345171425161,0.3399003127357395,1.687629675207053e-05,0.1015625
0.5936733760235697,0.3827818424923464,1.489317294768252e-05,0.1380208333333333
0.4557165251661567,0.312248531824979,1.97274702174355e-05,0.1024305555555556
0.5527105831221049,0.3485642562256268,1.704228186346155e-05,0.1014756944444444
0.4727156498430147,0.3425772890909432,1.819384411561561e-05,0.1004340277777778
0.9791497766965183,0.4808501368268983,9.110569945114959e-06,0.1412326388888889
0.505343349004027,0.3616835608541201,1.700372503851509e-05,0.1184895833333333
0.5067799304886735,0.3580812581614595,1.688510983689218e-05,0.1112847222222222
0.4003148029068933,0.3213837872126155,2.046478884858029e-05,0.1025173611111111
0.7238483417042242,0.3722750250737891,1.367864368279845e-05,0.13203125
0.5086537401376127,0.3396120301338332,1.858243526184008e-05,0.1111979166666667
0.6303129366668674,0.3679051490043471,1.449363467577777e-05,0.1173611111111111
0.7655466710169295,0.4055904837520695,1.185612654236909e-05,0.1211805555555556
0.5410764761858071,0.3335929055849711,1.734778557406965e-05,0.1036458333333333
0.7009573831674766,0.4144326533949771,1.225094149947954e-05,0.11484375
0.5640171390827617,0.3844045322767595,1.399506859497638e-05,0.08975694444444444
0.5772391514136307,0.3513663612939761,1.336178093448865e-05,0.09496527777777777
0.3803590430818349,0.5493997893200695,2.135606039370767e-05,0.09800347222222222
0.3549622391864675,0.7517202966614153,2.045456254028575e-05,0.1160590277777778
0.4258687877758965,0.6817572340781909,1.866462304573722e-05,0.1095486111111111
0.4942859340857392,0.3799613018937012,1.603504214508647e-05,0.096875
0.4454862890859332,0.3551578544375742,1.857469411061558e-05,0.08333333333333333
0.3884858518186072,0.3663937578202915,1.892672169937599e-05,0.07083333333333333
0.3977009612934475,0.3595595549905903,2.041769436332516e-05,0.07352430555555556
0.369309053452229,0.3719476176199821,1.894487795513188e-05,0.08706597222222222
0.3428032274371912,0.348070787620305,1.811916990219878e-05,0.09088541666666666
0.544308592363134,0.3920293930829202,1.19133047712103e-05,0.1295138888888889
0.4338787811754712,0.4548792671278384,1.496992527931506e-05,0.1232638888888889
0.2215529819724401,0.325123285341923,2.636432077235221e-05,0.09383680555555556
0.3838363062034656,0.3467830117840872,1.762522542200735e-05,0.10234375
0.2620059291319995,0.3355831649616507,2.406475450318832e-05,0.0765625
0.5278083354569449,0.3738735882549212,1.375216713970183e-05,0.1188368055555555
0.3908850026680117,0.3561581799024112,1.567741873625698e-05,0.1447048611111111
0.3872092349539277,0.3313973450383246,1.68575902240609e-05,0.1043402777777778
0.5893086170677062,0.4889793263179237,1.092126938157482e-05,0.1326388888888889
0.9787093840257733,0.4979583758428086,6.019821144485356e-06,0.1439236111111111
0.7583829386186095,0.4276218973673583,8.616921432181722e-06,0.1285590277777778
0.4090892067313598,0.3559528236551297,1.487395266557953e-05,0.1256076388888889
1.009659698276795,0.613418258879461,6.066441465682492e-06,0.1373263888888889
0.6493025948720427,0.4644434516669187,9.608154236306956e-06,0.1149305555555555
1.318321914163634,0.6603788943265793,4.126942809933364e-06,0.1674479166666667
1.233676477701496,0.6550512345118894,4.328527743636614e-06,0.1694444444444445
0.3090376690313763,0.3142514959653318,1.71232329103928e-05,0.1170138888888889
0.3283913429128829,0.3348824060317858,1.656780130428287e-05,0.1131944444444444
0.3124968236412849,0.3464515851317198,1.825704984712886e-05,0.1086805555555556
1.012440041000888,0.5637743714261234,6.373450090751239e-06,0.1357638888888889
0.237669006157149,0.3097615912639305,2.144222543086385e-05,0.0763888888888889
0.2816819408944383,0.3229030806266854,1.832014247965357e-05,0.1151909722222222
0.4173427117269893,0.4215091209411137,1.464473042973287e-05,0.09930555555555555
0.5419201619792788,0.5326724401841584,1.186272835898281e-05,0.09114583333333333
0.8361540004064302,0.5786901707125401,7.820669055121782e-06,0.1019965277777778
0.4916183472331525,0.381155258537113,1.225156212862025e-05,0.1080729166666667
0.7767139125714553,0.5611763047889604,8.613638040137036e-06,0.1150173611111111
0.6087661738678968,0.4916459713514209,1.075093044914581e-05,0.08706597222222222
0.5333976677614822,0.3559918066780668,1.084405940896726e-05,0.1248263888888889
0.8772311649336945,0.5535485507574961,7.544468578343002e-06,0.1038194444444445
0.6666249455292972,0.5712231380782664,1.005521188958284e-05,0.09930555555555555
0.4412591953522767,0.5418042421436974,1.685261597224653e-05,0.06901041666666667
0.469795749860882,0.5609700140530284,1.46470989236131e-05,0.07534722222222222
0.5162847202368074,0.5618846935192859,1.389496380267627e-05,0.08637152777777778
0.4952998545996783,0.5595470946913418,1.352032684842596e-05,0.1030381944444444
0.5187698832691362,0.5478038627815727,1.270442096973865e-05,0.0876736111111111
0.5077322835693944,0.458634305249269,1.144523815794067e-05,0.1154513888888889
0.6457619789536578,0.5658719289397158,9.965565582159672e-06,0.1002604166666667
0.5897012270581627,0.5694353070987251,1.102446943474044e-05,0.1025173611111111
0.5601768554305289,0.5256750768890103,1.148725728681999e-05,0.1237847222222222
0.7850623218312593,0.5877286061832294,8.213952113302093e-06,0.1096354166666667
0.469665746037482,0.5365501102224968,1.583123848384939e-05,0.08263888888888889
0.6640601587180184,0.5293857815743118,1.190488889412209e-05,0.1397569444444444
0.4212621710126052,0.341727615960178,1.669639672448367e-05,0.1350694444444444
0.3989883586021433,0.3481286876564125,1.798343720281738e-05,0.0763888888888889
0.524020544283557,0.3575194725609043,1.5850288649109e-05,0.09782986111111111
0.5644879696757936,0.3631517931429967,1.457240101080913e-05,0.09227430555555556
0.3970866030947258,0.3488629444035404,1.634401469226521e-05,0.06909722222222223
0.474530083796004,0.3545743464500485,1.503308192031961e-05,0.08472222222222223
0.4744678467001832,0.3471873367699586,1.644360410568988e-05,0.09227430555555556
0.5477996314119968,0.3824619304413625,1.520931860562608e-05,0.09461805555555555
0.4633790352491747,0.3577127436847191,1.579670547076687e-05,0.07256944444444445
0.4976780608255525,0.3525648454803433,1.383607397138764e-05,0.0828125
0.4611997337479621,0.3727067864343043,1.451223352133948e-05,0.06571180555555556
0.6487243040976362,0.4231082858822345,1.237288428131157e-05,0.08923611111111111
0.3861372210657926,0.5029845376506371,2.259770038752845e-05,0.1125
0.6122282813045912,0.3949772124824764,1.275750854642356e-05,0.09140625
0.4903503437048665,0.4435445411487584,1.92520184237088e-05,0.08064236111111112
0.4785915191566645,0.3606843890333228,1.788026514073429e-05,0.08177083333333333
0.4340853415891449,0.5824345326756007,2.461257771655439e-05,0.1073784722222222
0.4999296762454818,0.6403002081703875,2.436550503172694e-05,0.08940972222222222
0.5775604820459073,0.3813198036454891,1.511101847437825e-05,0.08446180555555556
0.3313494263216887,0.3735699927234063,2.371959664726225e-05,0.06970486111111111
0.510325899964454,0.366152223565622,1.700565845218929e-05,0.0671875
0.5480235136566444,0.3718335765933212,1.538735003545973e-05,0.07022569444444444
0.613883642676337,0.4192054756501323,1.461780675424704e-05,0.0890625
0.5537974018073194,0.4535294485686676,1.801014358081618e-05,0.09210069444444445
0.6029785029946411,0.4103464248145838,1.47602290257161e-05,0.09270833333333334
0.7693362185992876,0.4018949913733743,1.197852174506404e-05,0.1092013888888889
0.7498426344310515,0.4065817232251343,1.097849902032993e-05,0.0998263888888889
0.3610311378875447,0.3304404887192279,1.996629410449224e-05,0.07873263888888889
0.5248602787327201,0.3783115243989829,1.535188861640501e-05,0.08602430555555556
0.6416771759941389,0.4145346594578266,1.294865994358161e-05,0.1037326388888889
0.5913319569904332,0.365172818293661,1.382014136582417e-05,0.09904513888888888
0.4465431371352559,0.5829511317246507,2.37449338941218e-05,0.1059895833333333
0.3181185565346227,0.5656347574918208,2.818783209728616e-05,0.1308159722222222
0.5617054888807878,0.4058481013118713,1.691152025733518e-05,0.1011284722222222
0.5410628041717633,0.5052303046592724,1.926659413525633e-05,0.09348958333333333
0.524255292659897,0.4622678604756756,1.847693783625756e-05,0.1106770833333333
0.5309088588091002,0.3724744095746618,1.509212954328211e-05,0.0921875
0.6075086620398668,0.382942566197052,1.447322793425806e-05,0.09045138888888889
0.6103250744787088,0.3803727151589384,1.253433876042108e-05,0.08055555555555556
0.5099273344272426,0.4097446811798696,1.434873944757027e-05,0.1015625
0.6826581295809863,0.3955934944298952,1.186949247549923e-05,0.09904513888888888
0.7491855721477706,0.3949614200326469,1.140777330862014e-05,0.1471354166666667
0.810874254597283,0.4469496194769481,1.117281372368999e-05,0.1564236111111111
0.8700494932487893,0.4497762064158131,9.572161987390558e-06,0.1358506944444444
0.6044849108004171,0.3705094136335438,1.354512685947478e-05,0.1185763888888889
0.5157871071060832,0.3491155411443735,1.645088154619928e-05,0.1213541666666667
0.5737171465065177,0.3918262318432618,1.636423377798495e-05,0.1146701388888889
0.6147420710189835,0.3898316269383009,1.504422503786785e-05,0.1088541666666667
0.762303621956001,0.414205222370761,1.120322985776806e-05,0.1275173611111111
0.6477708756505758,0.3777382286144202,1.453742328275367e-05,0.1306423611111111
0.5835185065295422,0.387819897323676,1.560673971046847e-05,0.1397569444444444
0.5366830397417011,0.3784830556792074,1.680383200689737e-05,0.1190104166666667
0.6265920054153342,0.3871498988509441,1.500537672962516e-05,0.1217881944444444
0.6329948507964966,0.3786868779809691,1.510548579840117e-05,0.1130208333333333
0.6232555780859372,0.366315409558619,1.512407961561532e-05,0.1019965277777778
0.7217269922482414,0.4000092900173096,1.363514531690781e-05,0.1140625
0.5949182242326022,0.3870016523096715,1.646910785684255e-05,0.1119791666666667
0.6466073900712116,0.3894741709120796,1.54343580045162e-05,0.1274305555555555
0.5864309898844015,0.3810744742257852,1.551478815736575e-05,0.1138020833333333
0.7179387025516191,0.4018883888300911,1.368308823750444e-05,0.12421875
0.6888628419707729,0.3894021968012451,1.421849478713153e-05,0.1315104166666667
0.6324053205184951,0.3939880871598427,1.588716391174272e-05,0.1205729166666667
0.6747201369481607,0.3979525712844823,1.43579847118799e-05,0.1080729166666667
0.5986779416831722,0.3859092271150356,1.663385626307267e-05,0.1119791666666667
0.6728034191733698,0.4000197141434929,1.449708603787726e-05,0.1108506944444444
0.6042426877705785,0.3871046971771736,1.542470350560389e-05,0.1092013888888889
0.7523375737283235,0.4244461757086204,1.322193710628217e-05,0.1282986111111111
0.6437717462824404,0.38384925854643,1.4463096026036e-05,0.1118923611111111
0.6044656996799022,0.4056694706862874,1.559832177334628e-05,0.1126736111111111
0.5646811095407308,0.3794508921077096,1.76896574606739e-05,0.1029513888888889
0.5024765866716585,0.3541278366853873,1.863451689636744e-05,0.09644097222222223
0.5221720645075241,0.3543426670787534,1.77617380712314e-05,0.09392361111111111
0.5365436923140965,0.3795626794167241,1.807349780598395e-05,0.09383680555555556
0.6405679969334553,0.3958630612185236,1.536181710918534e-05,0.1013020833333333
0.6336842440748239,0.3763777492645304,1.620299002573646e-05,0.1002604166666667
0.6191127345194536,0.3941816727164802,1.602581882322565e-05,0.09470486111111111
0.7801082236534304,0.4688672495322748,1.217821844783031e-05,0.09800347222222222
0.6494011818202508,0.3882504011343369,1.509284201758898e-05,0.09522569444444444
0.7907791275607936,0.4580502607002059,1.233756987392984e-05,0.0998263888888889
0.6444537472790048,0.4387483530936601,1.638346126892266e-05,0.1049479166666667
0.6306116946884636,0.4228772962351474,1.569748583220168e-05,0.1053819444444444
0.7463757866234741,0.4184092571073055,1.334486261769633e-05,0.1068576388888889
0.8948379737396986,0.4874783699491649,1.074807979242055e-05,0.1012152777777778
1.039360646696829,0.5582302834463913,8.717843259754148e-06,0.1265625
0.951834392527949,0.5354563517152827,9.930952659612705e-06,0.1116319444444445
0.950877778854438,0.5155226917819519,9.87483391365105e-06,0.1142361111111111
1.133986624299171,0.5744497524558374,8.02114638980608e-06,0.1350694444444444
1.032817369112086,0.539374566993144,8.961648071425268e-06,0.1249131944444444
0.9766244015447259,0.5231130628544101,9.826883298574836e-06,0.1144097222222222
0.9916057395978549,0.5302667020961547,1.010043262624178e-05,0.1184895833333333
1.02058633226279,0.5255821376183428,9.221961257213639e-06,0.1262152777777778
1.066550043118708,0.5711368498615138,8.905428856205162e-06,0.1335069444444444
0.4398269927058546,0.582095514968988,2.213551324027536e-05,0.1223958333333333
0.4588637240621443,0.5450049189856608,1.951888703046451e-05,0.1275173611111111
0.5553840048591534,0.3918749382655103,1.581070543991944e-05,0.08888888888888889
0.507107311706998,0.3648302764220108,1.79929413209036e-05,0.07178819444444444
0.4742097199385011,0.3563096250903212,1.974953211520635e-05,0.07621527777777778
0.4987407495714669,0.3794672534142951,1.845398940068748e-05,0.07717013888888889
0.5825883760205598,0.3826454385698062,1.682030659060733e-05,0.08263888888888889
0.4926698200848838,0.3528802987036557,1.905340669258556e-05,0.08854166666666667
0.5136977521635315,0.3789017367844375,1.773827955498922e-05,0.08888888888888889
0.463773186570201,0.3752636024088512,1.926868029075272e-05,0.0881076388888889
0.5963627143887408,0.4043660079287446,1.566750766805697e-05,0.11484375
0.5046888896938775,0.3923577982422075,1.779439941497034e-05,0.1103298611111111
0.5933654680463237,0.3753931655917624,1.553394767963613e-05,0.128125
0.7866347888778421,0.4235268480207665,1.215725963218873e-05,0.1448784722222222
0.8169492486686988,0.4242669352273056,1.171384681842665e-05,0.1420138888888889
0.8163304269678173,0.4464322926152715,1.21898679780108e-05,0.1400173611111111
0.8676994189362993,0.4557130034911858,1.110816574174493e-05,0.1539930555555556
0.7446426648682307,0.4183919115821929,1.211476872512095e-05,0.1147569444444444
0.735239236744725,0.4268867673019293,1.298289967923769e-05,0.1272569444444444
0.892467294448236,0.4365619989509538,1.137530576582367e-05,0.1471354166666667
0.8006328893391176,0.4247608838787262,1.241605611507524e-05,0.13984375
0.9717363526898153,0.4585938876193622,9.564707957071745e-06,0.1535590277777778
0.8551889832423839,0.4204197365792916,1.153691766088953e-05,0.1400173611111111
0.9126201095533022,0.465137976511464,1.089327667045143e-05,0.1511284722222222
0.9564733268597311,0.4539293179509032,9.43507204911339e-06,0.1565104166666667
0.9854240225479879,0.4565365299032751,9.711938561205308e-06,0.1600694444444444
0.4607880720192832,0.5448199721508946,2.13479153416384e-05,0.1390625
0.4218966431937946,0.5325157593557126,2.210002991333266e-05,0.08298611111111111
0.8215551808892965,0.4467100017634573,1.014459308671609e-05,0.1182291666666667
0.8773601131838635,0.4602898267779335,9.65636803337092e-06,0.1209201388888889
0.7958763242046957,0.442137881820325,1.058585492698666e-05,0.1243055555555556
0.9317582603608858,0.5115032898013665,9.373396737194497e-06,0.1173611111111111
0.8567249402776085,0.4412623540476266,1.022322226214969e-05,0.1185763888888889
0.9025069997416222,0.471060525647101,9.493865292039864e-06,0.1348090277777778
0.9162439073556541,0.5138258847281444,9.613111489250958e-06,0.1253472222222222
0.8422646425652603,0.4341446994131862,1.031274303242812e-05,0.1372395833333333
0.8462160050002433,0.4561603025447506,1.071364604204415e-05,0.1278645833333333
0.9363756248043644,0.5001384670277337,9.010874544435815e-06,0.1355902777777778
0.9697962428196963,0.4909530507375497,9.285774895843574e-06,0.1579861111111111
0.9559167744499798,0.4695116220789725,9.89419277737262e-06,0.1404513888888889
0.9487233013587938,0.5083302004459196,8.729040985885276e-06,0.1355902777777778
0.8427200295604844,0.4604568733446294,1.045353456506528e-05,0.1405381944444444
0.8400233686760201,0.4790286751665687,1.057708161917401e-05,0.1331597222222222
0.7907937743926773,0.4614507091194223,1.080485597424282e-05,0.1269097222222222
0.6075272855720064,0.4791958898406617,1.514271704459361e-05,0.1086805555555556
0.6538637358145349,0.4123385815577928,1.317087653092177e-05,0.1095486111111111
0.8730091332526999,0.4815120425085357,1.028589643406238e-05,0.1060763888888889
0.8542219631542901,0.465340052475416,1.016520110373205e-05,0.1472222222222222
0.981344937987572,0.4705461427398052,9.011166202736666e-06,0.1303819444444445
0.7770709577066709,0.4394526517804623,1.241534904948713e-05,0.1110243055555555
0.3553044318794435,0.5504588749109084,2.597591301036912e-05,0.10859375
0.7260258207050329,0.5080266811173219,1.091718843577616e-05,0.1167534722222222
0.4006854326657471,0.3650432194663861,1.881968826735268e-05,0.08237847222222222
0.4373323738820024,0.3628802901689355,1.749827900634108e-05,0.0915798611111111
0.3287859822034093,0.3478246659624447,2.205481770200229e-05,0.0802951388888889
0.3460256412540914,0.3675385591905317,2.070755687391508e-05,0.09835069444444444
0.2497967501989955,0.3377531779474917,2.845775893086768e-05,0.07465277777777778
0.2990328164732048,0.3261475784206662,2.103936722310242e-05,0.09583333333333334
0.3314170131051214,0.37990373974113,1.985212176069538e-05,0.1177083333333333
0.4185785097791759,0.4158239804242331,1.630018513906118e-05,0.1201388888888889
0.5043222421201201,0.3871300932787642,1.363713879456847e-05,0.1234375
1.301749661905756,0.7085463259040846,4.465926557923236e-06,0.1747395833333333
0.9220628849244018,0.5238838858931953,7.455331113594256e-06,0.09852430555555555
1.134687613631614,0.5965101135903949,5.740728714471745e-06,0.1204861111111111
1.077370870969201,0.5640887300990352,5.885945287683625e-06,0.1520833333333333
0.365191526224614,0.3619764041668815,1.802881068651935e-05,0.1008680555555556
0.5734912490365133,0.4167168982505157,1.094514355755706e-05,0.1068576388888889
0.6942306202930076,0.5248488406482195,1.005402532701847e-05,0.1303819444444445
0.274319484446218,0.3561795330294635,2.244451953084487e-05,0.07473958333333333
0.3068688952221039,0.3249511339585389,2.087499165525613e-05,0.09053819444444444
0.3312240692300419,0.3553902381546618,1.990099771610428e-05,0.08758680555555555
0.4493476268292265,0.3825717242691442,1.37109260955615e-05,0.08402777777777778
0.2454914680472572,0.335358555400926,2.165178915968965e-05,0.09409722222222222
0.2741675471414965,0.3277950726256669,2.080526514283482e-05,0.09001736111111111
0.3285772745208977,0.3820442406084693,1.816582503763837e-05,0.08975694444444444
0.2685463403567201,0.3296111024559208,2.155155675993364e-05,0.06432291666666666
0.241533977918697,0.3678698079042159,2.574052059905622e-05,0.05321180555555555
0.2508031647057387,0.346170874905293,2.677273172525317e-05,0.07482638888888889
0.3920030415018775,0.3771726034894313,1.643772845771462e-05,0.09730902777777778
0.2800501447793512,0.3473887860922965,2.416441302722354e-05,0.06154513888888889
0.5499445585588763,0.4110584870066719,1.279313703025e-05,0.09383680555555556
0.5597309221123506,0.5184930801822025,1.129754194666972e-05,0.1154513888888889
0.4364246460865409,0.4740090351384443,1.564816823182456e-05,0.08203125
0.5890268438574926,0.5138543794254108,1.186822054176828e-05,0.1029513888888889
0.6290365222375932,0.5646778870096592,1.098524506732144e-05,0.09652777777777778
0.3542858811531386,0.4153766130878463,1.67528583960885e-05,0.09730902777777778
0.4504362733852788,0.4900354535969599,1.37680594626874e-05,0.1100694444444444
0.4355953269860335,0.5439904947227839,1.529744520795557e-05,0.0954861111111111
0.3917063702082173,0.4717529830304402,1.567858544578565e-05,0.08940972222222222
0.335575422235327,0.7301884461491821,3.070969516876554e-05,0.1140625
0.3435531528610345,0.7189540038805649,2.443306524878215e-05,0.09401041666666667
0.3240061917701418,0.3765061492016392,2.231060214249445e-05,0.08046875
0.3432044320470173,0.3480049468063017,2.180111760499484e-05,0.07057291666666667
0.2948863857397915,0.3420032867873056,2.437981966050869e-05,0.06979166666666667
0.3040974142470796,0.341936645615099,2.149549828139475e-05,0.06232638888888889
0.3534690122827576,0.3661564163967709,1.7741844069032e-05,0.06015625
0.516609353188515,0.6545680328071117,3.038975472025395e-05,0.09739583333333333
0.4763779778093007,0.4018357188165942,2.273919189632083e-05,0.059375
0.431993751445486,0.3703273390716244,2.161513645420237e-05,0.07951388888888888
0.4273255731502329,0.625513379191354,3.177757507824192e-05,0.09366319444444444
0.4925334818448092,0.4006548882965516,1.968743218144514e-05,0.07847222222222222
0.4739918347971465,0.3613138420825754,1.976845465605751e-05,0.07387152777777778
0.57464504286017,0.4179016368691854,1.63948606728573e-05,0.07907986111111111
0.5779099974761703,0.4827726439778995,1.794537452585187e-05,0.07604166666666666
0.4703262682356996,0.3822827378300864,1.940105167185151e-05,0.0724826388888889
0.5139950982438187,0.4110304044743262,1.754114709794525e-05,0.08758680555555555
0.4992728687143761,0.35896535714098,1.717715832345671e-05,0.1011284722222222
0.4204910570752885,0.4507055018123301,2.111266237362493e-05,0.09236111111111112
0.4084876707609,0.4651611656721871,2.613524137186207e-05,0.07552083333333333
0.5339214862366987,0.3778305574639272,1.658305303157196e-05,0.08871527777777778
0.5720745683242556,0.3763031534303169,1.752127128648643e-05,0.08732638888888888
0.4235990321572272,0.3481766886402752,1.97544603597965e-05,0.07118055555555555
0.4924677531740208,0.4112435052668086,1.822699776445643e-05,0.07447916666666667
0.7070136656573913,0.4764260850956448,1.38410145957438e-05,0.08663194444444444
0.4007417160626547,0.5146371587345956,2.760103587591569e-05,0.08394097222222222
0.5067765786526783,0.5054267527547943,2.115809936009715e-05,0.0915798611111111
0.3440120367161019,0.6044949188950326,2.762127982327858e-05,0.1123263888888889
0.4164598850675244,0.4796091186439959,3.064839847861347e-05,0.07725694444444445
0.4638576874367885,0.3713031987029615,2.107047966089812e-05,0.07126736111111111
0.3869566465576065,0.3423223611535369,2.136076062957415e-05,0.07213541666666666
0.4968588775097891,0.3628535669425954,1.768640973153801e-05,0.08064236111111112
0.4505011380012646,0.4101087945479468,2.077826031638618e-05,0.07222222222222222
0.4392826619012409,0.5416874809504085,2.918793362370776e-05,0.07734375
0.6017816463336585,0.6077655678762612,1.621712618294263e-05,0.1022569444444444
0.7711477085462934,0.4910645152083353,1.148875450305451e-05,0.10234375
0.7721445240091727,0.4749705386641132,1.14676624528113e-05,0.1255208333333333
0.3075115247837925,0.480129727557248,2.727835369421134e-05,0.09409722222222222
0.4322490077536215,0.60022707254952,4.114898346121356e-05,0.08854166666666667
0.3619109024925666,0.3629329577346868,2.635228540717647e-05,0.06710069444444444
0.3526205573133736,0.3410780098738135,2.391657151991491e-05,0.07109375
0.4970145034639936,0.3626454505614597,1.746340531678768e-05,0.08697916666666666
0.5157462184099363,0.3870633272697863,1.686026322526458e-05,0.08142361111111111
0.6360893976800007,0.4030816283920796,1.392754535551741e-05,0.1045138888888889
0.6107952131157842,0.371418989708131,1.353245782814534e-05,0.09479166666666666
0.5473719302065974,0.3635546474024431,1.52152010128312e-05,0.08385416666666666
0.6439163799214874,0.3730926000071884,1.323759383018809e-05,0.1223090277777778
0.5065258558628248,0.6157366466093209,1.847296543125251e-05,0.1094618055555556
0.5589727914863726,0.481161836616984,1.606892708823201e-05,0.0998263888888889
0.3712841290676739,0.359237545857623,2.222706861093537e-05,0.0828125
0.3700252481527696,0.3849628403463979,2.466152454620134e-05,0.09505208333333333
0.6581927077325243,0.556471292872446,2.677417886303964e-05,0.09227430555555556
0.5469817765545996,0.5785660769776789,2.233680652894067e-05,0.08862847222222223
0.5421530485581731,0.404625330795128,1.821846619478638e-05,0.08272569444444444
0.4862258673017717,0.4113126872112802,1.914900746758865e-05,0.09097222222222222
0.504774164123404,0.5819674325450807,2.464826735280298e-05,0.09609375
0.52258804184673,0.4312598994662097,1.7847024621532e-05,0.08411458333333334
0.59739120076178,0.3650055915075723,1.454955531516185e-05,0.08958333333333333
0.5258093241543752,0.3564216360207934,1.584296460316971e-05,0.09045138888888889
0.5724211953153325,0.3606855113817229,1.492332175715538e-05,0.09583333333333334
0.4974625792904254,0.4756225844546357,2.579290071230526e-05,0.08671875
0.7623768034896864,0.6491418537076675,1.683534095060058e-05,0.09826388888888889
0.5625275748356552,0.44722419434502,1.84907418915899e-05,0.09574652777777778
0.4088290455103394,0.4830373990944468,2.505310442076532e-05,0.08975694444444444
0.7809494228065089,0.5079468180512022,1.307393423313839e-05,0.1106770833333333
0.4238046924384528,0.5723016187918142,3.578422595748389e-05,0.09852430555555555
0.3938995517367848,0.5855099159298632,2.71972476891541e-05,0.096875
0.4949512133480635,0.6272407699776659,2.412610784300288e-05,0.09852430555555555
0.4652778583009163,0.707714993002273,2.789063849616859e-05,0.1094618055555556
0.4562176500297384,0.6621299503228123,2.855306442464533e-05,0.08897569444444445
0.4439455498774251,0.3734089539642163,2.151375135772466e-05,0.08255208333333333
0.3792446667678748,0.3593656302467171,2.253944734149795e-05,0.08680555555555555
0.5043524555347069,0.3706648152196435,1.723036130258248e-05,0.1165798611111111
0.5360991189649733,0.3864398233008805,1.671195857583273e-05,0.1072048611111111
0.5429078213714595,0.3743443636875904,1.670369908710086e-05,0.1037326388888889
0.8123957970070208,0.4322400115365911,1.060984768037915e-05,0.1344618055555556
1.076323452818565,0.5427199902468548,7.256936670372441e-06,0.1522569444444444
0.6269695351092542,0.4375446319511476,1.448265931032276e-05,0.11953125
0.779994507631657,0.4063326159746958,1.053265118121262e-05,0.1196180555555556
0.6226141922222551,0.3879867152130028,1.312703641579732e-05,0.1315104166666667
0.7966993082603648,0.4062387771744627,9.24375636348082e-06,0.10859375
0.670386546024977,0.3929166565139952,1.145197370271762e-05,0.1114583333333333
0.6922150230582071,0.4117996320616803,1.026370033672583e-05,0.1224826388888889
0.9267459765773063,0.4735815478961536,8.550341525518828e-06,0.121875
0.471704211600033,0.3649685781434169,1.420360042376324e-05,0.09305555555555556
0.5429799661323071,0.3646013588343235,1.245505777767275e-05,0.1168402777777778
1.142483001119757,0.5692316972022534,5.877176134565439e-06,0.14140625
0.6154793275160052,0.3935601716038553,1.179884820384768e-05,0.1135416666666667
1.204919595831875,0.5916934477336672,5.530228953499481e-06,0.1353298611111111
0.5137153846524699,0.3560359135314388,1.377264534676864e-05,0.1123263888888889
0.8074586521297393,0.4644501464185939,9.347318040643984e-06,0.1370659722222222
0.5372279563215938,0.4214837464549952,1.3258338379268e-05,0.1225694444444444
0.3215657397025186,0.3530266187354755,2.154797092845891e-05,0.1048611111111111
0.3997291754233951,0.5931174400772102,2.340062234304261e-05,0.1095486111111111
0.402179853363253,0.4509661318245718,1.937292265413681e-05,0.07734375
0.3019193299874108,0.3447357489604278,2.305714265345636e-05,0.05581597222222223
0.3986378329102215,0.3601414993969572,1.773651533758731e-05,0.08168402777777778
0.6143062210871061,0.3861705475517972,1.268142335946132e-05,0.1131076388888889
0.59417942678912,0.3718527373079401,1.338764373911845e-05,0.08628472222222222
0.08025169959823907,0.4709206249962459,2.494431827865156e-05,0.16953125
0.206838914924775,0.498434501113157,2.52309691003254e-05,0.1096354166666667
0.2052141850220715,0.4542855070710213,1.516983058577336e-05,0.1430555555555555
0.853795559926423,0.6162002500585277,4.516566721712234e-06,0.1440972222222222
0.99808444943266,0.6755831710774884,4.058334476269156e-06,0.1369791666666667
0.2532785642145968,0.4086532923128628,1.2698495226105e-05,0.1325520833333333
0.272263831080342,0.3799710212599505,1.143366274454872e-05,0.1227430555555555
0.2696861154352427,0.4399754959869902,1.168752359006714e-05,0.1532986111111111
0.2001612431387344,0.5164540476545723,1.441228444972131e-05,0.1235243055555556
1.134746994429964,0.5792414250189375,3.003289875054296e-06,0.1526041666666667
1.122669284828453,0.6022880859661826,3.182156783898911e-06,0.1345486111111111
1.197644799707461,0.6918848224440532,2.862227826656374e-06,0.14375
1.19331892179867,0.6534352117432904,2.709241955186327e-06,0.1649305555555556
1.292487092418966,0.6419518504216607,2.349358592586942e-06,0.1775173611111111
1.172054158032146,0.7217119069502045,2.783601295399e-06,0.15234375
1.306552189709736,0.7595047600213679,2.426933325817204e-06,0.1517361111111111
1.417351104166797,0.7381446178096623,2.121728465866668e-06,0.18046875
1.486615738626375,0.8084328821840779,2.076578822501044e-06,0.1871527777777778
1.625282598370008,0.8289010496239881,1.677201165644272e-06,0.2261284722222222
0.05487034094106426,0.4774662081154658,2.543576284932381e-05,0.1697916666666667
0.4685104273548335,0.5044470877892316,7.158391807412236e-06,0.1438368055555556
1.462994536240689,0.7629997884294027,1.965653614938466e-06,0.1803819444444444
1.492148624349962,0.7481492460607346,1.84757041879398e-06,0.19296875
1.375122937916238,0.6726347478914543,2.117630474099536e-06,0.1758680555555556
1.41212720613534,0.6923643586356985,2.113178005035099e-06,0.1707465277777778
1.571305959665396,0.7796746712295497,1.843382195204301e-06,0.1805555555555556
1.486952475982893,0.7448347930339804,1.910510926427655e-06,0.1763020833333333
1.494625109307941,0.7376136010863003,1.903925888534968e-06,0.1850694444444445
1.402656901281166,0.7030282721224664,2.067938265633597e-06,0.1611111111111111
1.441334779265245,0.7295468910523527,2.142297536510238e-06,0.1677083333333333
0.1502391992446469,0.5567387473037605,1.728241742181789e-05,0.1253472222222222
0.04962112065569167,0.4931629694863692,3.551772192231339e-05,0.1190972222222222
0.1019352807378975,0.4402888342361777,2.496470240124756e-05,0.09583333333333334
0.2216003139892403,0.4726423691528124,1.367390581377296e-05,0.1125868055555556
1.288948438162453,0.654701477875805,2.541050977384111e-06,0.1465277777777778
1.093580813356378,0.5625895846292694,3.218239239120449e-06,0.1261284722222222
0.9311399613179677,0.47677139114916,3.78371176777022e-06,0.10234375
0.8588346704671125,0.4726501455315771,4.251482263234991e-06,0.09279513888888889
0.876816862185445,0.4788345655178345,3.983933384653797e-06,0.09427083333333333
0.8287470067936794,0.4559836569654916,4.635826617062203e-06,0.0984375
0.9265398225786595,0.5092640989803916,3.793600573610498e-06,0.1110243055555555
0.7471206443511429,0.4952265518686164,5.670835146021111e-06,0.09409722222222222
0.5669053262348562,0.5327214383900777,7.022549455148177e-06,0.1057291666666667
0.5998276411458442,0.5323537119933395,6.811173698329596e-06,0.09366319444444444
0.8857866443203329,0.4846432784010843,4.7916138404936e-06,0.09331597222222222
0.8604405531110686,0.4848682468036616,4.963646992053969e-06,0.09227430555555556
0.5023893611610316,0.480584623919353,7.407459349155761e-06,0.09930555555555555
0.8738722713680114,0.5066479937414603,4.494689637624865e-06,0.1124131944444444
0.9998610818630304,0.5499891349043687,4.420271860980011e-06,0.1210069444444444
1.243621523379158,0.6730552401805104,3.732142989141527e-06,0.1587673611111111
1.286928269432921,0.7024406894542392,3.512002906107975e-06,0.1790798611111111
1.46228904654706,0.7769317180059181,3.09576727041606e-06,0.2177951388888889
1.484340561852446,0.7659609315938618,3.072533544688012e-06,0.2102430555555556
1.113087864979898,0.5701444273619247,4.175204678919171e-06,0.1272569444444444
1.154731445894057,0.5759006284878438,4.175854197499014e-06,0.1417534722222222
1.122429660847658,0.5717523153150333,4.397152133963901e-06,0.1277777777777778
1.090169952476779,0.5113108789348014,4.32816752187533e-06,0.1277777777777778
1.245971074249198,0.5862200990067347,3.966748433864748e-06,0.1696180555555556
1.359556661589008,0.6761061038705429,3.494960085237449e-06,0.1809895833333333
1.377888706925931,0.696300923508364,3.49917113441312e-06,0.1678819444444444
1.26595067711822,0.5789359514240581,4.145135612522962e-06,0.1616319444444445
1.124986150332956,0.5825940665311393,4.201685329924054e-06,0.1321180555555556
1.318119268060573,0.6520819450846598,3.640143433873697e-06,0.1635416666666667
1.138251139025281,0.5166391318007576,4.4107651560604e-06,0.13203125
1.206395507201083,0.575026052721036,3.965784892493498e-06,0.1605034722222222
1.222861607809063,0.5970191814652355,4.243014606295246e-06,0.1510416666666667
1.069830904326972,0.6189154049481065,4.626232771051084e-06,0.1418402777777778
0.8886133740011166,0.4645364409156587,5.033757135980784e-06,0.09348958333333333
0.9036359266684328,0.5420010327968451,4.77277105769835e-06,0.1453125
1.182725113757278,0.5611396965824442,3.938824209608886e-06,0.1515625
1.061291839995055,0.5516566174813899,4.449541373518935e-06,0.1472222222222222
1.15390115390798,0.5708424161140245,4.284541829713897e-06,0.1499131944444445
1.203046923496199,0.6104446938641879,3.886678712365276e-06,0.1556423611111111
1.266873961115887,0.6031799232437183,3.568973731524688e-06,0.1808159722222222
1.393956855268125,0.7157849530787792,3.266008945184658e-06,0.2011284722222222
1.161197615929353,0.6157182355330516,4.022831980173402e-06,0.1424479166666667
1.156815693710979,0.5970199741050234,4.001221766908542e-06,0.1348090277777778
1.254523497776053,0.6182880572713273,3.728227555923907e-06,0.1641493055555556
1.291310072170323,0.6481403474947082,3.6852888607381e-06,0.1738715277777778
1.310401905020224,0.6533108514908358,3.565364829889037e-06,0.1674479166666667
1.285686613208718,0.6726720319288706,3.760643870097337e-06,0.1644965277777778
1.42149324392791,0.7711346244894797,3.270929729605294e-06,0.2201388888888889
1.301137911356847,0.6642964596420949,3.652376856005672e-06,0.1802951388888889
1.366970437632099,0.6911023945916972,3.449954008759277e-06,0.1869791666666667
1.244419342684968,0.6332348519347039,3.936398076046405e-06,0.1668402777777778
1.221554222482481,0.6162407911047116,4.230453852112188e-06,0.1609375
1.371443443096599,0.7093075829426959,3.633905944461488e-06,0.1776041666666667
1.030016717849083,0.6075224561766999,5.425661060604122e-06,0.1375
0.585245103587545,0.5934591436934645,7.87327159487131e-06,0.1332465277777778
0.4690988705587637,0.5604650233566376,9.094502579213006e-06,0.1074652777777778
0.5326256105382453,0.6106610867869293,7.229513970590618e-06,0.1317708333333333
0.3074302350977748,0.510807146410707,1.078452739393908e-05,0.1061631944444444
1.048597262509112,0.5235767866459394,3.488494698241769e-06,0.1447916666666667
1.109570345219432,0.6108896257219955,3.820620311213282e-06,0.153125
1.482809526319111,0.7869616111559343,2.623201806216003e-06,0.2452256944444444
1.631752464358828,0.8504509390183771,2.298982662001168e-06,0.2655381944444444
1.401410806751517,0.7709637034979232,2.684406755695566e-06,0.2344618055555556
1.193268703603185,0.5926884171884369,2.971704336624363e-06,0.1458333333333333
1.450840351306815,0.7982624665033947,3.005167988819678e-06,0.2388888888888889
1.574712550686252,0.8545007706266377,2.421293720551885e-06,0.2880208333333333
1.506220580192194,0.8297077278213789,2.893429138084124e-06,0.2743055555555556
1.427571497086039,0.7824607025707978,2.740994871527792e-06,0.2181423611111111
1.712703011501356,0.8994933554550217,2.29488227809287e-06,0.3203125
1.547199938903502,0.837860231267053,2.894902985249412e-06,0.3046006944444444
1.416667096998272,0.7143771991466812,2.819113228023211e-06,0.2049479166666667
1.393753022135079,0.7901104977048555,2.858940972498923e-06,0.2482638888888889
1.455750183969748,0.7882002861520407,2.758269088832702e-06,0.2511284722222222
1.166678940387651,0.641116789278013,3.60689057482786e-06,0.1984375
1.042001356681391,0.4917033054021052,3.7818357232841e-06,0.1314236111111111
1.1921885281462,0.6327960132984771,3.219058336057628e-06,0.1771701388888889
1.652220654908319,0.8736814123847711,2.400323816037574e-06,0.3061631944444445
1.583625952789899,0.8611843071159168,2.429073656486837e-06,0.29609375
1.572404243445206,0.8302914272559557,2.663074917565413e-06,0.2842013888888889
1.498524301797707,0.8285677473229955,2.853133725377543e-06,0.2624131944444444
1.458607588704103,0.7805792894835086,2.67956322022976e-06,0.2233506944444444
1.547217542983185,0.7923210240471326,2.222607498810307e-06,0.2462673611111111
1.549510526790722,0.8197570638762842,2.134625763182573e-06,0.2374131944444444
1.480183921514332,0.7631880895009246,2.537662135609307e-06,0.2141493055555556
1.509819665220154,0.8145623944189088,2.424110210595366e-06,0.2590277777777778
1.451653269551242,0.7882684276547017,2.326408751567004e-06,0.2387152777777778
0.5067725739379987,0.5491220438717606,6.784871815770448e-06,0.178125
0.4539291856042083,0.5405032052839495,7.573471376810239e-06,0.1444444444444444
0.8030096369047337,0.6168513572645918,4.436222591186949e-06,0.1723958333333333
1.082885801031911,0.5969093068813041,3.552255217227444e-06,0.1716145833333333
1.484869874048071,0.7379598413034107,2.091385681529311e-06,0.2371527777777778
1.564861253829508,0.8335196753624843,1.671168223415651e-06,0.2321180555555556
0.6749210714231317,0.5710378069874887,5.229053746423377e-06,0.1646701388888889
1.240447916505234,0.6210888877114996,2.538657144357487e-06,0.1839409722222222
0.8870975492832606,0.6065866186819984,3.695306596010711e-06,0.1842881944444444
0.776731674040002,0.5938109855722783,4.569601752670092e-06,0.16171875
0.7337573163390663,0.5615700697142626,4.867064423745102e-06,0.1450520833333333
1.321449871643771,0.6859985654589817,2.339369901017005e-06,0.1814236111111111
1.144656921956523,0.6589695473262766,2.804785435910858e-06,0.1872395833333333
0.5085824178458961,0.5631545543333047,6.569501189356348e-06,0.1295138888888889
0.6075121838847176,0.5894501162563298,5.475977087579519e-06,0.1639756944444444
1.400573167430472,0.613281839720249,2.283854697986824e-06,0.1934895833333333
0.4139363385266864,0.4993513110731324,7.865609406057328e-06,0.1411458333333333
0.3211285735005683,0.5416770866029332,1.044833365100957e-05,0.1263888888888889
0.2763586380081639,0.501456469532537,1.358558292012896e-05,0.1177951388888889
0.9979610652563071,0.6446173527276108,3.712502419937789e-06,0.1431423611111111
0.7331054846955006,0.5666308072926096,5.160033579508639e-06,0.1395833333333333
1.095380564987213,0.4985672509310349,3.311695651372577e-06,0.1241319444444444
0.5762763516869421,0.575864249161415,6.297378063549594e-06,0.1235243055555556
1.138907750652791,0.6378540259508522,2.738271157838987e-06,0.1513888888888889
0.9703394849997253,0.6627672649146761,3.286271063816973e-06,0.1520833333333333
1.127473068639975,0.5640838528072304,2.808559292704691e-06,0.1358506944444444
0.9078676178067475,0.4935549731135855,3.703101468434409e-06,0.1181423611111111
1.192080396797478,0.5387510717267308,2.73061244756871e-06,0.1383680555555556
1.246740952113632,0.5787350113563628,2.504186728595365e-06,0.1486111111111111
1.091791646486894,0.5051456678910067,3.072479489328893e-06,0.1239583333333333
1.128502907583551,0.5972969948953297,2.900970736950031e-06,0.14609375
1.187627815451968,0.5892938107174455,3.077836582163016e-06,0.1585069444444444
1.383312157701678,0.7166150056680582,2.629915146092232e-06,0.2081597222222222
1.359829591203982,0.7150754842136485,2.755900771572215e-06,0.1902777777777778
1.563820692026418,0.8076633539713214,2.282183520313965e-06,0.2565104166666667
1.434150003953062,0.7389634973947721,2.802260917589684e-06,0.2094618055555555
1.412894478837488,0.7062719013858176,2.729846705931719e-06,0.2100694444444444
1.640547087405915,0.854593052058697,2.295055989840294e-06,0.2641493055555555
1.220430951707305,0.622736233166538,3.945016446331243e-06,0.2006944444444445
1.054331921675475,0.5262322182364019,4.481396315200922e-06,0.140625
1.367028712488204,0.7262967119176621,3.160566583454074e-06,0.2071180555555556
1.378205551880358,0.6886346375325209,3.272631002369243e-06,0.1801215277777778
1.573921911126969,0.77956781918766,2.574991777134585e-06,0.2497395833333333
1.512896148722728,0.7601511713295821,2.708581590443803e-06,0.2322916666666667
1.28244369561278,0.6048413571279541,3.495878541407048e-06,0.1657986111111111
1.398236331108414,0.7025914499634321,3.070643223044634e-06,0.2075520833333333
1.482800701587658,0.7702086700037495,2.780104703397286e-06,0.2275173611111111
1.376180957271077,0.7060030320637036,3.320296706144652e-06,0.2020833333333333
1.079144718650999,0.5423588490490133,4.455921412011255e-06,0.1333333333333333
0.4571458559440935,0.5244956071657525,1.068935770145616e-05,0.1875
1.161773482619213,0.5684429580281116,3.703552363092639e-06,0.1325520833333333
0.4611467182877703,0.5375238674524319,9.989971796125674e-06,0.1547743055555555
0.3921413756794225,0.5160245651072795,1.062069202874314e-05,0.1040798611111111
1.180012792110966,0.5872007835543074,3.608327022458679e-06,0.1579861111111111
1.457748047378535,0.7744654700680711,3.090831443626066e-06,0.2340277777777778
1.23600946749171,0.5992794918059557,3.961228155087295e-06,0.1833333333333333
1.289696968434257,0.6349386624354867,3.741007807738662e-06,0.1871527777777778
1.373451369026714,0.6947805788352528,3.627236003391061e-06,0.1845486111111111
1.204810146059081,0.6149843860906853,4.140753862586794e-06,0.1433159722222222
1.320223054984604,0.6779919303015194,3.55160914856059e-06,0.1983506944444444
1.492778116915245,0.7870255037172827,2.996225684576337e-06,0.2339409722222222
1.441084733078153,0.7763279859316157,3.269989423205319e-06,0.2227430555555556
1.51165100331967,0.7996457278116621,2.871332356677177e-06,0.2315104166666667
1.491870275746325,0.7580714258505338,3.201837582704106e-06,0.2245659722222222
1.471674516282528,0.751823935384562,3.338792161713451e-06,0.2180555555555556
1.40150791166769,0.7360338778516268,3.566756169402307e-06,0.2111111111111111
1.173022472066371,0.6566101858095635,4.404881339270222e-06,0.1544270833333333
1.121359083249705,0.6307899544087054,4.974548399056672e-06,0.1339409722222222
1.23196548973707,0.7325898055954929,4.625086911704709e-06,0.1500868055555556
1.123146880808421,0.7397305763779214,4.841761121492708e-06,0.1792534722222222
0.6405782419815834,0.6628333949886027,8.895283384022424e-06,0.1518229166666667
0.2364203213153098,0.4115295461764313,1.944715824794039e-05,0.1363715277777778
1.319184997586851,0.6893748288274512,3.587154054712049e-06,0.1758680555555556
1.56705852879923,0.8026196534090686,2.94209921422101e-06,0.2217013888888889
1.437273488423258,0.7599267160968443,3.335237184031462e-06,0.2102430555555556
1.348169891612763,0.7187831790045213,3.578731149310315e-06,0.1853298611111111
1.383808849820451,0.7003258234114134,3.736377875561334e-06,0.17734375
1.30167536347371,0.6960341092995332,3.764538089937987e-06,0.1600694444444444
1.304327380363673,0.707778517610275,3.904598957277333e-06,0.1730902777777778
1.292857202395592,0.7012371465621633,3.848273843390003e-06,0.1666666666666667
1.312856453463235,0.6900085579705966,3.780853629389718e-06,0.1665798611111111
0.6987276541179618,0.6185869987785364,8.283023723828623e-06,0.1454861111111111
1.231577338095804,0.6809309330495001,4.123907004463208e-06,0.1639756944444444
1.236321590805565,0.6775279081284323,4.162154728299248e-06,0.1624131944444444
1.234859386228943,0.6777379991052788,4.199178035547955e-06,0.15625
1.248771207605169,0.6831603926179585,3.90209583564539e-06,0.1555555555555556
1.310993248968462,0.6774375536665083,3.969092790451782e-06,0.1707465277777778
1.196773463495275,0.664033026316584,4.190555606047316e-06,0.1573784722222222
1.251688320694242,0.6880596703109406,3.990037995282418e-06,0.1649305555555556
1.296194026234783,0.6903433094340641,4.094072794118639e-06,0.1665798611111111
1.258477249700701,0.684383153856545,4.13573392357018e-06,0.1555555555555556
1.239426844233689,0.6787221370534304,4.307571550125645e-06,0.1568576388888889
1.319428460407376,0.6818746772834965,3.919752732559986e-06,0.1642361111111111
1.292076760426647,0.6787603557446414,4.026602742944717e-06,0.1623263888888889
1.237860955994797,0.696156231023852,4.124826067817335e-06,0.1491319444444444
1.313903016125875,0.7014613574573226,3.806298333759321e-06,0.1552951388888889
1.243109013094143,0.6963331166325419,4.068511958484252e-06,0.1473090277777778
1.313910107277977,0.7085658014806382,3.842107421753677e-06,0.1649305555555556
1.208354203904979,0.6627270749306289,4.284858354088622e-06,0.15078125
1.129457890905925,0.6548251927230593,4.617943501967588e-06,0.1487847222222222
1.296995837573128,0.6853049686230773,4.082781645344573e-06,0.1676215277777778
1.263962356155311,0.6728157426705067,4.078148200218263e-06,0.1605902777777778
1.329934869430708,0.6949916704189563,3.97480793437464e-06,0.1655381944444445
1.236463097349358,0.6725455658100817,4.123893559342314e-06,0.15859375
1.175588012477238,0.6553214356477224,4.451464951853629e-06,0.1541666666666667
1.272883939425374,0.6520858408282747,4.187024871912194e-06,0.1646701388888889
1.273725921997646,0.6786885574642376,4.013034730372882e-06,0.15859375
1.249101740347815,0.6850773765566581,4.047502131733856e-06,0.1584201388888889
1.219916231716928,0.651846733790584,4.411677241090132e-06,0.1494791666666667
1.2781976625391,0.6826238571522419,4.126513597413805e-06,0.1536458333333333
1.201619663715358,0.655582536880839,4.339578956932357e-06,0.1559027777777778
1.190173886147956,0.6572570469329584,4.192803942812137e-06,0.1527777777777778
1.184235357280012,0.6461860659180355,4.289255814492736e-06,0.1644097222222222
1.251440202162323,0.6667538733054795,4.204972930978967e-06,0.1548611111111111
1.280379219338751,0.6839284548744782,4.037599364953072e-06,0.1619791666666667
1.234979850191874,0.6717659892292812,4.100900721615225e-06,0.159375
1.231450487542957,0.6653568909823139,4.17953478093041e-06,0.1640625
1.235795963582606,0.6782615277647356,4.052889832602541e-06,0.1534722222222222
1.198638063110724,0.6452873846508014,4.383845271618703e-06,0.1431423611111111
1.222076456524694,0.673412828830921,4.095834695779989e-06,0.1467881944444444
1.21211156739175,0.6484181620609334,4.335781016251666e-06,0.1506076388888889
1.226674893410455,0.6726536260879799,4.02230261871547e-06,0.1494791666666667
1.223587139270698,0.6723930731662957,4.042402596371726e-06,0.1460069444444445
1.221676172447465,0.6786842933127233,3.954277343862317e-06,0.1581597222222222
0.4967823660604712,0.4362658828701483,1.188675586679857e-05,0.1462673611111111
0.3543995671140013,0.4975428553650417,1.500984964535019e-05,0.11796875
0.6944467038723009,0.5023405724592727,6.476686840613387e-06,0.1225694444444444
1.171713213819364,0.6360056769230362,3.378663317541468e-06,0.1494791666666667
1.371579312660051,0.6760912568968547,2.760938197222816e-06,0.2088541666666667
1.526273835625114,0.8127150372365557,2.412959871555874e-06,0.2504340277777778
1.474293148359821,0.7693871284745281,2.366961977066971e-06,0.2159722222222222
1.559097043803249,0.8152478470348804,2.163644465741181e-06,0.2322916666666667
1.381435593183577,0.7249995546470793,2.438175196777919e-06,0.2174479166666667
0.9777162434416061,0.670018248233723,3.611498969880918e-06,0.1703993055555555
0.982345998275638,0.6590512888841092,3.609012868706809e-06,0.1657118055555556
1.166647688684314,0.6615850509249829,3.04390995837333e-06,0.2053819444444444
0.9134518667796325,0.6057973523711827,3.794772796724468e-06,0.203125
0.5385705071743904,0.5827680233160666,6.619851352842888e-06,0.1485243055555556
0.2223492231718562,0.4618098144558056,1.475289093631786e-05,0.1631944444444444
1.238714887206325,0.6009642605016908,3.265813323591306e-06,0.1561631944444444
0.7869795967979787,0.6009628070240526,4.927417476940916e-06,0.1344618055555556
0.4438790927734098,0.5459858000966714,8.914235882778647e-06,0.1162326388888889
0.761518592228362,0.6082754183473646,4.933685703097888e-06,0.1189236111111111
1.026074948393131,0.4734872017772345,3.592223975907389e-06,0.09826388888888889
1.091684498074897,0.5058609022022991,3.314656995018821e-06,0.1217013888888889
1.388222072560223,0.6810290695820697,2.530735390740151e-06,0.1848958333333333
1.47201786263157,0.7141204208180041,2.354664114066466e-06,0.1921006944444444
1.515341478793547,0.7994275684064764,1.991987474994332e-06,0.2299479166666667
1.100667090367595,0.6958999868789977,2.727666323781004e-06,0.1961805555555556
0.6935413069492804,0.5703131181914937,4.810002199047632e-06,0.1574652777777778
0.9969481597406121,0.5865523087405018,3.540538913771817e-06,0.1526909722222222
1.289657147776571,0.5889318193016482,2.573483651448965e-06,0.1454861111111111
0.7219522596239282,0.4797248365192734,5.332963488427067e-06,0.1081597222222222
0.5951900105878271,0.6069912945462875,9.232037283996012e-06,0.1116319444444445
0.6626028657696245,0.638877782986441,7.202915145344825e-06,0.1473090277777778
0.6481776237355891,0.6424133924810266,6.658102513006941e-06,0.1559027777777778
0.5630651936290483,0.6334434415940009,7.531938585451358e-06,0.17734375
0.7006007308226342,0.6700206646465862,5.401356035110674e-06,0.2217881944444444
0.6648544598791117,0.6435262655367961,7.697791551285549e-06,0.1473090277777778
0.6102068659486225,0.6212109225394823,8.077914964610422e-06,0.1641493055555556
0.7684847528288348,0.6877378975008961,5.582326430242496e-06,0.1984375
0.6435495843239571,0.6689271783800184,6.392422276374855e-06,0.1951388888888889
0.6565398137964165,0.6760252387865634,6.611988371066891e-06,0.2046006944444445
0.7060389862794825,0.7421950481315747,6.86072337280923e-06,0.1753472222222222
0.6515169505459923,0.7028177920323047,8.464931738149958e-06,0.14140625
0.4441971503516379,0.6788783818981053,1.291468019462512e-05,0.1305555555555556
0.4044123322945921,0.6777937094872343,1.426113736318077e-05,0.1183159722222222
1.242049054666925,0.7302582792799619,2.55580892132122e-06,0.2454861111111111
1.632733278512835,0.8403412548003644,1.586625890385919e-06,0.2678819444444445
1.559146064623899,0.7981833439140086,1.755129704838182e-06,0.2592881944444445
0.5394703502538712,0.5905151831589286,7.804220490101937e-06,0.1543402777777778
1.211668480426311,0.716423807705357,2.523532507077713e-06,0.1578125
1.252133956255159,0.7128297764112451,2.400878412577246e-06,0.1828125
1.080139241051895,0.6493534234720164,2.9900003295875e-06,0.1930555555555556
1.469144546594631,0.7402108835201031,1.748730118441026e-06,0.2046006944444445
1.145810386159168,0.6911074218489452,2.579823950465557e-06,0.1865451388888889
1.440536609276688,0.7198349766722606,1.853536646322817e-06,0.196875
1.451317999930181,0.7327528456599656,1.748322262910974e-06,0.2032986111111111
1.211295827151301,0.674549924921645,2.274548679730781e-06,0.2000868055555556
1.517301952230945,0.7730823489915885,1.665402304602337e-06,0.2138888888888889
0.411218938803972,0.4789437015124856,6.722194322728854e-06,0.1879340277777778
0.4390176598807882,0.5118858784422016,7.005831485824952e-06,0.1655381944444445
1.337542350634043,0.7569757435881523,2.080746465905009e-06,0.2163194444444445
1.359542308245576,0.7339394906923608,2.055008332079672e-06,0.20625
0.7102941810192926,0.6269904991500606,4.660226271694769e-06,0.1880208333333333
0.5365093887403803,0.5552599306242908,6.543775997854256e-06,0.1338541666666667
1.169302775403889,0.695462119415007,2.839303812635507e-06,0.1388888888888889
0.932961278498126,0.6825288337315667,3.573789187038884e-06,0.1602430555555556
0.8244174617838164,0.6066983266649989,4.169592426643171e-06,0.16875
1.474786967454631,0.7185048995133461,1.732045987925317e-06,0.1947916666666667
1.372028686022821,0.6784638918043273,1.908629643666207e-06,0.1982638888888889
0.6917246058623735,0.5884103693523327,5.179647207854169e-06,0.1427083333333333
0.6987598011058127,0.6375585227027869,5.00329709408605e-06,0.1499131944444445
1.104524994917424,0.637971410665488,2.859545622238693e-06,0.1631944444444444
1.358611565001123,0.663880460111645,2.206152654790851e-06,0.1665798611111111
1.335297148524186,0.6749293200012448,2.121575081111798e-06,0.1611111111111111
1.334576703501441,0.6728193092035993,2.110600045762162e-06,0.1868923611111111
0.558642112119449,0.5482827067866717,5.860196611495463e-06,0.1549479166666667
1.423773061205139,0.7167105883146607,1.993197748228057e-06,0.1672743055555556
1.119363236774888,0.6724312677666706,2.697772392690542e-06,0.1750868055555556
0.3184320554933686,0.5710051161308951,9.486059774552353e-06,0.1443576388888889
0.3694825644745836,0.6112381849740849,9.041210212281722e-06,0.1639756944444444
1.29733581618599,0.6730507667461837,2.111014339217866e-06,0.1785590277777778
1.429733804245928,0.7298782050722203,1.74905934009549e-06,0.2092013888888889
1.424908688940618,0.7114307923890152,1.770868935541265e-06,0.2095486111111111
1.293124211315081,0.7216426777987102,2.209270241852123e-06,0.1893229166666667
1.320706503505239,0.6765114730852643,2.03639083838075e-06,0.1846354166666667
1.357299005950962,0.679295857928582,1.808850629486761e-06,0.2096354166666667
1.272172683676779,0.6275459791517604,2.15583408654706e-06,0.1657118055555556
1.277873285493654,0.6497541792940283,2.083305712644313e-06,0.1763888888888889
0.4907020034059016,0.5182795334838638,6.183613140844079e-06,0.1738715277777778
0.7544188586563616,0.5944381995323709,3.978819085474035e-06,0.1785590277777778
1.193451246956953,0.7111497922562112,2.380413493228182e-06,0.1961805555555556
1.403747755363151,0.7067069956635414,1.941559375943069e-06,0.1803819444444444
1.472267616086695,0.7335497687865601,1.797063540401241e-06,0.2010416666666667
0.6161103734377675,0.5807248279458599,4.995773899486767e-06,0.1766493055555556
0.5991522512468259,0.5822766051764579,5.634788737044397e-06,0.1397569444444444
1.415459352833053,0.719582661849197,1.826818696802358e-06,0.2061631944444444
1.409434453767566,0.7282007139043872,1.88019445759343e-06,0.1954861111111111
0.6207372318393853,0.5647069598351119,4.881995677292787e-06,0.1894097222222222
1.249116000351435,0.6400279285634353,2.248124858742981e-06,0.1568576388888889
1.126320469606787,0.5500619909027556,2.718571239320959e-06,0.1309895833333333
1.107062459185636,0.517838373512735,2.720916637938975e-06,0.1238715277777778
1.080484162474593,0.6157744721209547,2.872087968406106e-06,0.1474826388888889
1.138095598553035,0.552936887358184,2.647567439373742e-06,0.1394965277777778
0.6510558006623003,0.4831246981523217,4.991769339667149e-06,0.1163194444444444
0.4923033328277324,0.4926454237114991,6.525292984807203e-06,0.1240451388888889
0.9020687013986507,0.6733853526034591,3.250602560339629e-06,0.1681423611111111
1.149347005735632,0.6752646439261218,2.426597243864369e-06,0.1701388888888889
1.04018196433488,0.565654241505924,3.008094481978571e-06,0.1375
0.9826989229724007,0.5275059619686472,3.271370318347156e-06,0.1360243055555556
1.166232980938229,0.5618535164528581,2.535326544406515e-06,0.1435763888888889
1.104355041287182,0.5273316434987296,2.675605641604241e-06,0.1353298611111111
0.3896436526724684,0.5551277945910467,7.874038508203228e-06,0.1328993055555556
1.032151906564761,0.6046315766297414,2.934403666885757e-06,0.1389756944444444
1.055228223130755,0.5580471668640444,2.803644173152727e-06,0.1315972222222222
0.7689148557337907,0.4550334718440324,4.315805924232997e-06,0.09296875
1.098249019600365,0.487662080216782,2.636008371819519e-06,0.1222222222222222
1.142686391301292,0.5727078489380247,2.608212493336425e-06,0.1393229166666667
0.8969967375505866,0.4868188152556981,3.6683303152094e-06,0.1072048611111111
1.100507997121638,0.5534214901015172,2.929340002317034e-06,0.1337673611111111
1.121889692286581,0.5570703947572351,2.981580601837756e-06,0.1564236111111111
1.002048628071253,0.4942998996476595,3.380149755959854e-06,0.1375
1.082174009805617,0.5646898897364062,3.278507888634681e-06,0.1481770833333333
0.3726975987749302,0.4737117518777585,8.714547479199997e-06,0.1347222222222222
1.095750988355209,0.6346576796613989,2.803852344396964e-06,0.1363715277777778
1.270395075627655,0.6379286755814026,2.646726003278831e-06,0.1731770833333333
1.246814701731758,0.7215452813099854,2.713444505226974e-06,0.1999131944444444
1.284918927466314,0.7240717982704444,2.570729165143215e-06,0.1971354166666667
1.395342614930881,0.7328397917886594,2.341656489550729e-06,0.2219618055555556
1.50977783423948,0.796820722421404,2.255667408651379e-06,0.2503472222222222
1.377212851448016,0.6449330421921835,2.379221227571261e-06,0.1865451388888889
0.903842887918437,0.6144714220686763,4.536801899525319e-06,0.2207465277777778
0.4598787467519432,0.5489064904326494,7.001856596388276e-06,0.1450520833333333
1.308298835361829,0.6585049310099597,2.7689843734033e-06,0.2008680555555556
1.547205648755605,0.8539782027587763,2.612652936164524e-06,0.2910590277777778
1.387457250963963,0.7721673697675556,2.712437378704672e-06,0.2276909722222222
1.309225993256657,0.6378097384271274,2.978362030117727e-06,0.1893229166666667
1.423717281849524,0.710738951074361,2.588305428134553e-06,0.2160590277777778
1.494920438920837,0.8122410309250319,2.457298183761566e-06,0.2552083333333333
1.447733924283544,0.8020450964051818,2.614568471045348e-06,0.2605902777777778
1.558478288833205,0.8001048041354055,2.381635442135028e-06,0.2580729166666667
1.439531091821758,0.7348320889015273,2.667717187503327e-06,0.2300347222222222
1.410593513269625,0.6853207439960489,2.619870737637456e-06,0.1967013888888889
1.555749322212825,0.81101303617782,2.451015820147442e-06,0.2674479166666667
1.705488396853003,0.8853819582472143,2.067717069803146e-06,0.3035590277777778
1.60482770621875,0.8254401637583575,2.354951888303429e-06,0.2573784722222222
1.541462809057468,0.7749593065783871,2.476247785306437e-06,0.21796875
1.438149037413011,0.7781166353558846,2.803795761544431e-06,0.2305555555555556
1.580437160371309,0.81331476120926,2.360391597829043e-06,0.2541666666666667
1.611308951231309,0.8512049973287371,2.40946086439685e-06,0.2714409722222222
1.581913781041453,0.7954065406045274,2.56386424672516e-06,0.2446180555555555
1.473797854735039,0.7644830771618563,2.778636028933583e-06,0.2225694444444444
0.7561906838123028,0.5626504503008352,6.194228839805461e-06,0.1548611111111111
1.340397486626612,0.6489468071048122,2.856157465882221e-06,0.2026041666666667
1.218920385528456,0.6182461663767896,3.165870160630467e-06,0.18984375
1.354576688952331,0.6364047166011872,2.713842324177146e-06,0.19921875
1.468348997874561,0.7808046662484169,2.577346100414968e-06,0.2375868055555556
1.382866872574372,0.6958818263704761,2.708857340600397e-06,0.2042534722222222
1.528935461592586,0.7839906757540471,2.381380970390267e-06,0.2690972222222222
1.319659702585793,0.6422302222465558,3.176577236026313e-06,0.2
1.432180079188129,0.7516838368758654,2.842264491729423e-06,0.2194444444444444
0.3700583294507542,0.5484242098746063,1.118320857017808e-05,0.1051215277777778
0.9036386817418434,0.4643042819840763,4.234422824875414e-06,0.09513888888888888
1.046026246889393,0.5295046616154326,3.79497245470158e-06,0.1229166666666667
1.433633402836974,0.7412807476494514,2.538531384158494e-06,0.2228298611111111
1.554966291733274,0.8644458226941005,2.442618672340004e-06,0.3236979166666666
1.600396316953819,0.8651043124437648,2.324272745194901e-06,0.3019965277777778
1.077913021688742,0.7176441534549602,3.933915916150011e-06,0.2517361111111111
1.585479883846419,0.7790364829550341,1.825140417036013e-06,0.2212673611111111
0.8317016174493844,0.5912482549843947,4.097864960075749e-06,0.1662326388888889
0.9719241497908798,0.6322713627195633,3.394787218498513e-06,0.1641493055555556
0.7699694446832543,0.6204352949437807,4.877382864115461e-06,0.1444444444444444
0.3885560357516765,0.54379999163887,8.71988399304871e-06,0.1239583333333333
0.4458756765892709,0.6077133348244038,7.758597258398677e-06,0.1335069444444444
0.4289820415046007,0.5598265549992776,8.22508245664405e-06,0.1215277777777778
0.4719981617591419,0.5843975447335287,6.753589219732993e-06,0.1639756944444444
0.8328129536730311,0.654058352801329,3.749509920351873e-06,0.2060763888888889
0.3040672257515654,0.5472494668571221,9.37315400108946e-06,0.1519097222222222
0.3680445121344081,0.5726462088785349,8.903260377732487e-06,0.1203125
0.4169743492074135,0.5726479478314479,8.134828007278866e-06,0.1193576388888889
0.7917075946804478,0.5848717947232658,4.398271484268738e-06,0.16328125
0.5079580587520345,0.5410962523372292,6.507052227465606e-06,0.1685763888888889
0.3849024515440803,0.5869557425826213,1.000173687354597e-05,0.09010416666666667
0.388426668464408,0.5663147971439582,8.083257871105226e-06,0.1203993055555556
0.4209737769766986,0.5669794429967016,8.518522241764916e-06,0.09296875
0.3724795121872869,0.5313371711116516,9.592758443438788e-06,0.09635416666666667
0.4428603525012257,0.5758355606690564,7.192714526972606e-06,0.1611111111111111
0.4199303203053118,0.5804097843089959,9.372909993409659e-06,0.08602430555555556
0.4373386279939064,0.5524278201743932,8.454697198282745e-06,0.08567708333333333
0.5210956626506711,0.5265431905045482,6.832619288299085e-06,0.1311631944444444
0.824956312976815,0.5234933399181169,5.139843933233696e-06,0.1649305555555556
1.226168936747488,0.5364109406725075,2.927996181077461e-06,0.1536458333333333
1.085849011854815,0.5472995818870003,3.258963288005689e-06,0.1328993055555556
1.042722732110132,0.5815972951464334,3.855550701715727e-06,0.1802083333333333
1.481564244586372,0.6575098171048764,2.136491900576799e-06,0.2026041666666667
0.6938769224819963,0.5790048265254923,6.161447583162013e-06,0.1802083333333333
0.5544363817693423,0.5148372825212404,7.177869026310374e-06,0.1479166666666667
0.3575755926346693,0.57178093040234,1.126948756349681e-05,0.1349826388888889
1.413223497377194,0.6644487077199158,2.462045334253184e-06,0.1954861111111111
1.309927698320873,0.5679253191970866,2.635575409821601e-06,0.1700520833333333
0.8814673123027197,0.426840175005272,4.186804991079985e-06,0.1040798611111111
0.9599219159053056,0.4780873209228312,3.704789841814301e-06,0.1236111111111111
1.1832665299294,0.583573025158857,2.691061281685826e-06,0.1717881944444444
1.254425504265277,0.5838788099499473,2.525368266743894e-06,0.1567708333333333
1.421155049773422,0.7422689898161119,2.128277733615655e-06,0.1966145833333333
1.313129600556693,0.6798334394918848,2.620718444430434e-06,0.1876736111111111
1.507092081327206,0.8275619218313485,2.076556622552186e-06,0.2466145833333333
1.441142749919074,0.7029527444421092,2.305572281025864e-06,0.2020833333333333
1.34580635156166,0.724643568077261,2.484744286902861e-06,0.2140625
1.471620887374629,0.7740580014209827,2.433275393895538e-06,0.2350694444444444
1.54635891556785,0.8214046358454984,2.28524764672087e-06,0.2701388888888889
1.594352455748656,0.8636451121592811,2.24789559325497e-06,0.2878472222222222
1.760826295227448,0.8826018397493011,2.055637264524787e-06,0.3026909722222222
1.624189912755032,0.8435785312075197,2.259608579538786e-06,0.2750868055555555
1.672299406054477,0.8684149257741866,2.31890079952784e-06,0.2958333333333333
1.549863824548314,0.8437813506570855,2.383283530460829e-06,0.2904513888888889
1.658047594852982,0.8618877491506838,2.367343805204505e-06,0.3085069444444444
1.597367515197217,0.8397344227272324,2.281944786877713e-06,0.2422743055555556
1.624231077378195,0.8396267865714209,2.563320535261346e-06,0.2701388888888889
1.62740350799881,0.8331233977741437,2.698030626686667e-06,0.2809895833333333
1.558953020263827,0.7908728385973328,2.815963095481961e-06,0.2296875
1.507150831343164,0.7933081550069802,2.81945107451889e-06,0.2315104166666667
1.569782065877212,0.8282063706761917,2.68577363984267e-06,0.2572916666666666
1.5559318150082,0.8159246851557321,2.753262936232742e-06,0.2651041666666666
1.482540760370031,0.756660237625561,3.047137384925387e-06,0.2309895833333333
1.446191435209398,0.7684767243970961,3.162412297569374e-06,0.2252604166666667
1.383928847385906,0.7420467377929721,3.211038587338954e-06,0.2052951388888889
1.436764523196927,0.7589955856397024,3.159163618343118e-06,0.2207465277777778
1.419626104479947,0.7403574173468505,3.280172709317984e-06,0.2041666666666667
1.41035862484226,0.7412317531062382,3.423136661802002e-06,0.2235243055555556
1.275749045505195,0.7147649552456525,3.654104094947217e-06,0.1771701388888889
1.479498264669668,0.7591035181659284,3.050286099745726e-06,0.2011284722222222
1.476133785081201,0.7474046230701418,2.879636150806101e-06,0.21328125
1.650076325192674,0.8452758046645855,2.511405266273665e-06,0.2651041666666666
1.509406384617186,0.7758621779089226,2.977882033548214e-06,0.2473090277777778
1.431263483875925,0.7457268049445174,3.217200916150997e-06,0.2238715277777778
1.434206456769505,0.7420991006431181,3.162041761419735e-06,0.2229166666666667
1.390075775952968,0.7286914966789266,3.312434176997957e-06,0.19921875
1.245032150667926,0.7076787794926981,3.83072993086482e-06,0.1671006944444444
1.547495991673231,0.7863418715111223,2.811557412755607e-06,0.2239583333333333
1.440687772367387,0.7466192739510632,3.325004023777693e-06,0.2097222222222222
1.294521176984705,0.6842668877492292,3.673704409570523e-06,0.2008680555555556
1.358543365144708,0.7283035599764042,3.461807661315617e-06,0.1971354166666667
1.297683531882322,0.708273684710191,3.821443585933218e-06,0.1823784722222222
1.395929424499083,0.7351333053562189,3.333446285126237e-06,0.1889756944444445
1.28587374779978,0.680871576254428,3.727694338832721e-06,0.1761284722222222
1.256695174802001,0.672683862489791,3.988145579786963e-06,0.1787326388888889
1.326425381705856,0.7072691758391595,3.69031666900706e-06,0.1890625
1.338785256799609,0.7109118253361134,3.668973521212919e-06,0.1795138888888889
1.386497034375322,0.7357188275591444,3.321701620081306e-06,0.1885416666666667
1.400206078441175,0.7247914116966624,3.342463578216137e-06,0.1973958333333333
1.313013251586737,0.7061413385322297,3.603810224206892e-06,0.1736111111111111
1.321681335057305,0.694010293170252,3.548218691431012e-06,0.1717013888888889
1.249464700884307,0.6740868203834376,3.644556699699559e-06,0.1743923611111111
1.244190857009375,0.6950711631016279,3.748353123231242e-06,0.1686631944444444
1.284630819297788,0.6944062917538182,3.594557829829825e-06,0.1655381944444445
1.270257851210396,0.6953179443980374,3.625623119985689e-06,0.1627604166666667
0.9479521041596732,0.6150074300920207,5.637868402587992e-06,0.1555555555555556
0.8519752891813412,0.5974354614820603,6.045437863665548e-06,0.1650173611111111
1.052115849809339,0.6054515635486918,4.293427116969146e-06,0.1488715277777778
1.364231839645467,0.6579174944537549,2.98825087265737e-06,0.1745659722222222
1.329961130787813,0.6776344599714569,3.060115746484362e-06,0.1860243055555555
1.322530559369469,0.6847837299584587,2.809887774709779e-06,0.1868923611111111
0.7111632348881511,0.6133236179985087,5.972741276303005e-06,0.1794270833333333
0.333773409486845,0.523564913773298,1.006944628828867e-05,0.1739583333333333
0.56958456070985,0.5664616241095121,8.475280359351423e-06,0.109375
1.146012691671395,0.6176228979758666,3.256072894604888e-06,0.1526909722222222
1.41576821597216,0.6060659837283091,2.347040187085615e-06,0.1772569444444445
0.6233999512525333,0.5044279160418988,6.116239835385875e-06,0.1414930555555556
1.317256101841133,0.6152132597605299,2.360512149449776e-06,0.1615451388888889
1.167559820630533,0.5219730976189633,2.929003435857922e-06,0.1310763888888889
0.5043959234271385,0.5222186966127955,7.097399519359427e-06,0.1237847222222222
0.4598844865991868,0.5134600517176688,7.027399198972045e-06,0.1471354166666667
1.046040976930073,0.5416399531296967,3.24090922194188e-06,0.15234375
1.180330960822331,0.5963884898506501,2.696267967750382e-06,0.15234375
1.086085846540848,0.6268225462259868,3.039020350576378e-06,0.1910590277777778
0.8223095678579831,0.5689678642732897,4.257768407707748e-06,0.1652777777777778
1.25070221329214,0.6155496389374326,2.668801072703866e-06,0.1831597222222222
1.419030990512209,0.6992993900544026,2.188879992386578e-06,0.2063368055555556
1.507207072847774,0.7850681881341088,1.952690869378533e-06,0.2266493055555556
1.628884320083407,0.8644906097366557,1.689037016867165e-06,0.2525173611111111
1.446271541341932,0.7454318687675701,2.131284195872567e-06,0.2151041666666667
1.268309966513652,0.7220491532820338,2.542214910918573e-06,0.2235243055555556
1.231968791200471,0.7437996156096833,2.515722301956926e-06,0.2244791666666667
1.500937278515136,0.81515606190297,2.017113082907155e-06,0.2348958333333333
1.550133759678137,0.8237016015521326,1.874136058662277e-06,0.2338541666666667
1.563053258230048,0.8591154221014518,1.818968661847432e-06,0.2438368055555556
1.549272304997573,0.8263192323669307,1.884611786355735e-06,0.2280381944444445
1.590414919845374,0.8435433190918806,1.759213454868467e-06,0.2291666666666667
1.565818216798478,0.8133139316027649,1.883737697838863e-06,0.2291666666666667
1.477497136593884,0.7872932021140274,2.007000754496915e-06,0.2138888888888889
1.59242219415561,0.8491993502318358,1.935885296356935e-06,0.2513888888888889
1.089433505664128,0.5936994957753273,3.090557776527279e-06,0.1987847222222222
1.512885255442781,0.8025648573813938,1.974014289634808e-06,0.2497395833333333
1.327991176953532,0.7673105054880507,2.479291961426873e-06,0.2416666666666667
0.85370102365916,0.6138389647869905,4.411363583887992e-06,0.2043402777777778
1.51462542716099,0.7605488261766902,2.023632765271688e-06,0.2215277777777778
1.314830622625323,0.6908755856511869,2.549529070266963e-06,0.2306423611111111
1.319975048353429,0.7378485576606274,2.414972377203502e-06,0.2239583333333333
0.8350031869258743,0.6106873572622233,4.334126433463276e-06,0.2137152777777778
0.7112506175868928,0.5351729511723254,4.956547532027359e-06,0.1672743055555556
1.472849618934924,0.6470822810526115,2.12976519069104e-06,0.1999131944444444
1.42793915682857,0.6892132846450177,2.178206013723911e-06,0.1938368055555555
1.622099529251241,0.7800834781384094,1.803173893279669e-06,0.22734375
1.595508570100342,0.8251239764072222,1.862810670803038e-06,0.2427951388888889
1.441257459041387,0.6861282916810938,2.17268620415245e-06,0.2311631944444444
1.285906978460721,0.5959700376412058,2.800840258905764e-06,0.1864583333333333
1.61942560456047,0.7919444948643874,1.988208267445318e-06,0.2400173611111111
1.466224749992866,0.7642163200035107,2.392679747092988e-06,0.2340277777777778
1.548355050573223,0.8027341839447194,2.213867876461787e-06,0.2555555555555555
1.594685136988445,0.8380189699673569,2.114881698590516e-06,0.2723090277777778
1.440687874042123,0.778834804090708,2.457945777040634e-06,0.2614583333333333
1.667289005025526,0.8629289478812676,2.225588904981568e-06,0.2834201388888889
1.588387382830076,0.8258578706460756,2.270434473534697e-06,0.2698784722222222
1.645433693267902,0.8607456460720541,2.276573280915964e-06,0.2877604166666667
1.660787229450599,0.8577431961321412,2.236272823001736e-06,0.2994791666666667
1.523865429584675,0.8045004343126828,2.562801143119736e-06,0.2933159722222222
1.545255858090653,0.7981757877426628,2.631989931512759e-06,0.2447048611111111
1.545843299758233,0.7726186851311125,2.477418379848546e-06,0.2564236111111111
0.5226703795823405,0.5431583453769666,7.809032221609828e-06,0.1751736111111111
1.585702260758132,0.7119284290219249,1.882948999069063e-06,0.20625
1.595517415377102,0.8137581857462595,1.922524833292259e-06,0.2399305555555556
1.531163966109476,0.8209908083373842,2.321121000581891e-06,0.2619791666666667
1.664182468411261,0.8377891779383765,2.005556329749032e-06,0.2628472222222222
0.5994720436316051,0.5649980426003087,6.930999307869587e-06,0.1623263888888889
0.7638667137244025,0.5980134505346802,4.676237515554132e-06,0.1453993055555556
1.28719659539383,0.5627413194188068,2.597595901211991e-06,0.2246527777777778
0.5121771949276455,0.5699376149393689,6.262019753948486e-06,0.2109375
1.551219051790369,0.727426052838476,1.892842824964976e-06,0.2217013888888889
0.5692132417677911,0.6231901218619499,6.037942813467329e-06,0.2108506944444444
0.4168712231299777,0.4779819211355372,8.52423615773613e-06,0.19375
1.42175365022685,0.6158605798995617,2.34881120932704e-06,0.1930555555555556
1.025406149148959,0.5956122154287843,3.554067254645122e-06,0.1760416666666667
0.2230826482683217,0.3798139253751008,1.273571426550176e-05,0.1475694444444444
0.9182755661696764,0.6730070915069732,9.484011868594967e-06,0.146875
1.125992655080883,0.6896777210845918,7.723376862104193e-06,0.1643229166666667
0.9647149082515248,0.7226759132155658,8.942468798965547e-06,0.175
0.7463280120197091,0.7791838237248639,1.235740128007229e-05,0.1525173611111111
0.7094363322315148,0.8002819221234131,1.20809373314264e-05,0.1664930555555555
0.2460346810184451,0.7360033968309033,2.674036035196657e-05,0.1688368055555556
0.3462206857113622,0.7491841672944685,1.999400529981649e-05,0.1866319444444444
1.267683936362989,0.7319814608170458,5.520607443425457e-06,0.1974826388888889
0.2873868375032619,0.8091509731248885,2.209957021469561e-05,0.2003472222222222
0.3234589216585317,0.6791647191127208,1.861102258512871e-05,0.1628472222222222
0.7308434568594454,0.5975033994127773,1.06032485360248e-05,0.1428819444444444
0.8940716617488109,0.6349239712058062,7.84788420960194e-06,0.1590277777777778
0.7144015432057174,0.5817931231910843,1.002393619862826e-05,0.16171875
1.332237472042314,0.7256675857936916,4.867073713463299e-06,0.215625
0.4974082563953848,0.7746109440215231,1.479021970007525e-05,0.1733506944444445
0.3367363838064616,0.3702373441615076,2.088783991127859e-05,0.1010416666666667
0.8769379294054193,0.5341625398490024,9.117344570185186e-06,0.1155381944444445
0.3044971315722999,0.6758032037800951,2.521706140056509e-05,0.1262152777777778
0.9027748509479241,0.6151430000982703,8.416542585795724e-06,0.1738715277777778
0.2624638712164269,0.3953810811745977,2.263467779388611e-05,0.1427951388888889
0.6806387386036823,0.6265669086118592,1.219395861894808e-05,0.1487847222222222
1.340652399762288,0.7331778143171602,4.619812504661704e-06,0.2034722222222222
1.507830326097651,0.7697867475688949,3.783243773776429e-06,0.2002604166666667
1.111843278023318,0.6740827938785616,5.897298876830298e-06,0.1706597222222222
0.301208703257307,0.6675238760409165,2.225602121118086e-05,0.1365451388888889
0.8915834545393044,0.5976922430465563,7.70191802173247e-06,0.1650173611111111
0.2156521161918983,0.6994700611547335,3.033288593200152e-05,0.1227430555555555
0.3208900385878766,0.6571446298373536,2.231198141049648e-05,0.1267361111111111
0.3393037409850875,0.3980462292731948,1.900801088236569e-05,0.1097222222222222
1.278579741937103,0.7339203172747668,5.043970331561194e-06,0.19921875
0.1390257934916474,0.4891490509694393,4.948040393124461e-05,0.08428819444444445
0.5619912468722316,0.406966150946729,1.210481555936389e-05,0.1471354166666667
1.283464577903897,0.704418612310181,4.772282540096089e-06,0.1951388888888889
1.329266141350209,0.6865886649344319,4.388246512706783e-06,0.2046875
1.257186305701817,0.6901070747527536,4.827595543947963e-06,0.1961805555555556
0.6397694551225286,0.398578656029547,1.087417294762841e-05,0.1639756944444444
0.318597881688562,0.3439202274149555,1.864953063072201e-05,0.11640625
0.7661569596563591,0.5087517398152522,9.000369543732991e-06,0.15859375
0.2316859705288428,0.702531278612602,2.485611534113644e-05,0.1604166666666667
0.2261920714090062,0.7279311578241999,2.474804393553391e-05,0.1269965277777778
1.379892139623526,0.746232681383839,4.13017741339103e-06,0.1944444444444444
1.438970350958011,0.7525742621593058,3.952283180351589e-06,0.1986979166666667
0.7211280840046062,0.4146690771610037,8.890602856972775e-06,0.1788194444444444
1.140953746291621,0.618666951589203,5.360365478386906e-06,0.1776041666666667
1.286368356703717,0.6951344177836859,4.511779368251211e-06,0.1962673611111111
1.121853641646265,0.70614200363956,5.636109376101905e-06,0.2012152777777778
0.1454787368044227,0.4188093039976524,3.400127332877953e-05,0.1164930555555556
0.4736026442859244,0.3790160798963871,1.276507620348834e-05,0.1731770833333333
0.313873416305582,0.3905523534869074,1.768424045454213e-05,0.1510416666666667
0.5626436876936629,0.5629432281813055,1.177337350910667e-05,0.1763020833333333
0.8564750188993374,0.5313405411229227,8.022158447741381e-06,0.1658854166666667
0.1988342188671368,0.5191182408640433,2.600640772677607e-05,0.1232638888888889
1.33382879215613,0.6831587346970378,4.383092916694029e-06,0.1589409722222222
1.165598428601665,0.6189847198323233,5.216198494883542e-06,0.15859375
1.332804665441842,0.6392174663007943,4.252453748055349e-06,0.1671875
1.336887153267815,0.6379919046957214,4.173585568698254e-06,0.1640625
1.211308019722426,0.5703447224534414,4.925976927973413e-06,0.1427083333333333
1.210856830097107,0.5707799799270084,4.83784597307107e-06,0.14765625
0.7549972148341946,0.379297730815942,8.904715305002094e-06,0.1377604166666667
1.242781439663664,0.7044045724296484,5.175171003649858e-06,0.1708333333333333
1.253459840369882,0.7458193923817313,5.604019002009999e-06,0.18125
0.3524154035636008,0.5180519035775923,2.01001671349633e-05,0.1908854166666667
0.2919383121590267,0.4757778123970566,2.128123800598836e-05,0.1015625
0.9880481647683317,0.5456516504853793,7.998659740630013e-06,0.1410590277777778
0.7310558418633516,0.4578924464944236,1.102640873034189e-05,0.1319444444444444
1.039378677127449,0.5350927706934804,7.212962249427506e-06,0.1559895833333333
0.7138124643743782,0.4549826350844784,1.175531809244414e-05,0.1460069444444445
0.5449850070485522,0.3912499197731867,1.771752476098164e-05,0.1443576388888889
0.7036691797752136,0.4793403777044495,1.385974428460172e-05,0.1489583333333333
0.5437574602026498,0.3852367741893996,2.095624087690038e-05,0.1129340277777778
0.5632577838953499,0.4175392714223042,1.84385220725907e-05,0.1025173611111111
0.3686672895923733,0.4744229315637021,3.125457238510281e-05,0.08802083333333334
0.3637586842558614,0.526275956734295,1.854373473550929e-05,0.1335069444444444
0.3144885520390928,0.6933688700281833,2.000011004838074e-05,0.1408854166666667
0.5512547704444118,0.3857842697997844,1.182358552563439e-05,0.1105034722222222
1.054954945363155,0.4790211347510607,6.005221465257617e-06,0.1537326388888889
1.245510859885103,0.5962628439428054,4.795249077372701e-06,0.1719618055555556
0.84556598655704,0.4559171690284003,8.57497990396665e-06,0.1355034722222222
1.068906500784039,0.5652490076463754,6.631282475362421e-06,0.1512152777777778
0.4922707425471523,0.3928551426773209,1.555169924925559e-05,0.1016493055555556
0.456639917390473,0.3896965291777011,1.830863955695693e-05,0.10546875
0.5897782598554236,0.3874233862322546,1.640465861116541e-05,0.1012152777777778
0.6715291567281397,0.4514594160181692,1.505612181850276e-05,0.1349826388888889
0.7971366962898525,0.4493459729794898,1.480282991187931e-05,0.1201388888888889
0.9997278808204764,0.5422696473435836,1.169350022455886e-05,0.1317708333333333
0.9535975810092552,0.5404906386936038,1.3001799342124e-05,0.1059027777777778
1.043424905756305,0.5738960585648772,1.120768892806403e-05,0.1530381944444444
1.160756627682385,0.666694608621384,9.582789432564504e-06,0.1822048611111111
1.172221628936355,0.6727442196840799,9.868823537794797e-06,0.1673611111111111
1.125490641872444,0.6835692730722853,1.021473075442875e-05,0.1544270833333333
1.126737013752768,0.680330020751089,1.019733424372897e-05,0.1454861111111111
1.128525666148211,0.7123007222383659,9.676082761491345e-06,0.1612847222222222
1.046637046529737,0.6899328377886975,1.088802541231645e-05,0.1524305555555556
1.130277341181387,0.7252716563079217,9.794276081306521e-06,0.1526909722222222
1.084995349558224,0.6985991982939874,1.069663706018458e-05,0.1439236111111111
1.13721785012906,0.69513104628616,1.044936081196921e-05,0.1438368055555556
1.001290288698482,0.6769081338873271,1.233141800342614e-05,0.1217013888888889
1.080841815679292,0.685315037272496,1.105292126199494e-05,0.1324652777777778
1.006597708689716,0.6919714074114678,1.211667244926208e-05,0.1389756944444444
0.9413812712302518,0.6746303590742838,1.180089745553839e-05,0.1300347222222222
0.9458479149910439,0.612829461483734,1.197956123208911e-05,0.1152777777777778
1.014992561845246,0.6330713624081356,1.182799379030171e-05,0.1284722222222222
0.9838007588645772,0.623809389309473,1.259172779658305e-05,0.1271701388888889
0.9617236315264885,0.610907994112781,1.280414831203866e-05,0.1241319444444444
1.003621737828089,0.670696208656428,1.228669258380551e-05,0.1272569444444444
0.9440111928053042,0.6574640493409024,1.31047958187406e-05,0.1173611111111111
0.9621698388316379,0.6606394735352118,1.363178381192885e-05,0.1241319444444444
0.8949275953979259,0.649522099424009,1.445289571210462e-05,0.1149305555555555
0.9086932210535456,0.6618771241759165,1.39034799532123e-05,0.1105034722222222
0.9096282214300069,0.6455148636468264,1.443380201904141e-05,0.1103298611111111
0.8715521005568526,0.6449105210439092,1.493851438875488e-05,0.1073784722222222
0.9658472260723552,0.6681220083621101,1.375703308043718e-05,0.1173611111111111
0.7234485252423768,0.6225389976041543,1.502779197570343e-05,0.1149305555555555
1.19977911624038,0.7003334695184126,5.911426418157151e-06,0.1344618055555556
0.875907473020433,0.5826770848492691,7.945194409854315e-06,0.1618923611111111
0.878314558835881,0.5868316357064622,8.313397980484458e-06,0.1420138888888889
1.359762537636529,0.7594042474677151,4.821606554498807e-06,0.1879340277777778
1.438130845582744,0.7637146100704081,4.343341072162552e-06,0.1809895833333333
1.457826961263943,0.8093303449637813,4.544596732715067e-06,0.2186631944444444
1.495567507859132,0.7779668179142267,3.807893686915689e-06,0.1891493055555556
1.397263932125022,0.8147774150573367,4.849788913102509e-06,0.2233506944444444
1.269552163425154,0.7094207350907479,5.644088462036807e-06,0.2146701388888889
1.420076072325826,0.8061178236098879,4.965965906826931e-06,0.2291666666666667
1.098004450423878,0.6035901161812577,6.924749255641706e-06,0.2238715277777778
1.349984830952773,0.7167860465338919,5.21840248959965e-06,0.2293402777777778
1.59022852334877,0.8643355742724885,5.352340011418698e-06,0.3169270833333334
1.530430889944413,0.8512641626048039,4.848370443621904e-06,0.278125
1.506305167418581,0.8311738781766029,4.371254067764265e-06,0.2548611111111111
1.539052133364954,0.823439321660523,3.862205063967381e-06,0.2301215277777778
1.564281443946453,0.8416936045230676,3.434290387981794e-06,0.2347222222222222
1.589575008995064,0.8602245054139365,3.263163838297109e-06,0.2375
1.531820260862528,0.8080702850172065,3.574259653912608e-06,0.2256076388888889
1.63462566723103,0.8482584252351001,3.136408738146591e-06,0.2356770833333333
1.607114852657216,0.8447429406476163,3.133185018513987e-06,0.2256944444444444
1.536860036340659,0.81479165391187,3.311082438958676e-06,0.2162326388888889
0.1642044823815499,0.4420274201245716,2.881639494343575e-05,0.1280381944444444
0.1287766202368196,0.4450602595489097,2.529612035299625e-05,0.1401041666666667
1.54874096878964,0.7560473875588275,2.875967093902935e-06,0.2134548611111111
1.626729361673125,0.7860778334259209,2.553450492516783e-06,0.2229166666666667
1.568576761510048,0.7797302621926347,2.773398275955163e-06,0.2091145833333333
0.1791920403242722,0.4233731661532601,2.522113530093601e-05,0.1428819444444444
0.7041836318063838,0.7270217475489211,8.577468995162047e-06,0.1527777777777778
1.467863623310739,0.700580200026017,3.084206357494237e-06,0.1860243055555555
1.505312644961226,0.7061716892171086,3.081986298375955e-06,0.1872395833333333
1.313508918708817,0.6718354173451371,3.894366711033749e-06,0.1762152777777778
0.6588503110816741,0.5738928055538406,9.302391942401284e-06,0.1494791666666667
1.494124339704719,0.7477637127592752,3.121489969999821e-06,0.2048611111111111
1.645578033688391,0.8041754174538585,2.71609537427035e-06,0.2178819444444444
0.8554018777839607,0.5998439489705161,6.763556598783697e-06,0.1910590277777778
0.6205349143026107,0.6062792636590992,9.141236899014173e-06,0.1835069444444444
1.522922287340473,0.7826001534879704,2.999294399059196e-06,0.21328125
1.590349189439145,0.7902443729800971,2.672988119309969e-06,0.2094618055555555
1.503402416454655,0.7242973628960315,3.080418679488234e-06,0.2137152777777778
1.498243887455311,0.7240281581585702,3.216629937974785e-06,0.1915798611111111
1.604358030116546,0.7787100178508096,2.700870000838211e-06,0.2079861111111111
1.464790856508781,0.7091542976449321,3.261531376558383e-06,0.1876736111111111
1.521635569994775,0.7179146113856516,3.098582303005865e-06,0.2092881944444444
0.9091510961627831,0.619015930310813,6.00221468077171e-06,0.2048611111111111
0.8755194003174266,0.5894033553526896,6.184306430481394e-06,0.1733506944444445
1.578818817647161,0.7787241369896127,2.817749797361032e-06,0.2130208333333333
1.585774425822924,0.7856754053151763,2.774963445989265e-06,0.2152777777777778
1.648500401059074,0.808528185655168,2.669163457814685e-06,0.2269097222222222
1.440666281050074,0.6766044480658243,3.408494937367392e-06,0.1984375
1.48400834053132,0.7293401697978081,3.198425514084957e-06,0.196875
1.484893482940876,0.7211495049228172,3.302134191089777e-06,0.18984375
1.50136235350118,0.7249142418994985,3.233582121002724e-06,0.1924479166666667
1.550484767282806,0.7188200723487806,3.124696391858078e-06,0.1946180555555556
1.56208072467256,0.7670255811927529,2.994484384704936e-06,0.2079861111111111
1.591832800577562,0.800486006650928,2.902757382957003e-06,0.2204861111111111
1.519854112640895,0.7279098353180747,3.212783260941293e-06,0.2069444444444444
1.389571708135831,0.6565124487794021,3.590648414227379e-06,0.1760416666666667
1.586193019526517,0.7851491282417921,2.830332259432165e-06,0.2153645833333333
1.546094941061724,0.7606682729191813,3.030248625288081e-06,0.2059027777777778
1.540928333859352,0.7793393466919301,2.986829205705422e-06,0.2133680555555555
0.4017352677810629,0.5628001071854681,1.404151836301449e-05,0.1731770833333333
1.448581064322102,0.7084359424456784,3.338593837000637e-06,0.1883680555555556
1.556841659133519,0.763218954338015,3.104743439331778e-06,0.20546875
0.3125598567844914,0.4212983638350277,1.614134307694522e-05,0.1519965277777778
1.421110358513454,0.6656561687763398,3.590332868997873e-06,0.2003472222222222
0.9076020048848378,0.4594188700315983,6.365342850928115e-06,0.1730902777777778
0.5460605043634289,0.4201217838747815,1.089664256644817e-05,0.1168402777777778
0.6092659880146618,0.3743789768240372,9.8835915652488e-06,0.1227430555555555
0.2086046342446768,0.4631083847268869,2.302556494183951e-05,0.1090277777777778
0.4051943432979228,0.374615788110126,1.461957987669733e-05,0.1021701388888889
0.3757074641657481,0.3564910707475716,1.51083677681389e-05,0.1185763888888889
0.5677176769949098,0.3635167143468768,1.050996172621249e-05,0.17421875
0.9006847660025475,0.6482732368113485,6.55268077057038e-06,0.1834201388888889
0.343339983020947,0.4554927230511172,1.613379640095979e-05,0.1482638888888889
1.576879172168435,0.7800639090970485,3.187252936157844e-06,0.2256076388888889
1.650425761683103,0.8034106903684975,2.951400411656181e-06,0.2219618055555556
1.600876445553389,0.7766264200359068,2.875111155645221e-06,0.2171875
1.525809928302181,0.7467387653133115,3.263611352810745e-06,0.2109375
1.492621816265022,0.7213539781891602,3.292109745930618e-06,0.1960069444444444
1.51596395431192,0.7174350802767313,3.214581619483069e-06,0.1888020833333333
1.36390213664911,0.6310603580079629,3.74680440051454e-06,0.1620659722222222
1.469325052618545,0.7122681840189743,3.266211208523432e-06,0.2011284722222222
1.400671518126816,0.6602469169324251,3.541189433070542e-06,0.1792534722222222
1.325773928415059,0.6030829560536977,3.839696949165791e-06,0.1615451388888889
1.381865064796242,0.6744830860998409,3.65870346443032e-06,0.1793402777777778
1.47655191674937,0.6825339992690109,3.314895310506316e-06,0.20625
0.1022233368513843,0.491497330727412,3.737800170296586e-05,0.1058159722222222
0.6560989045923081,0.4097427503903923,8.877364165182311e-06,0.1625868055555555
1.287370252059277,0.5747818393795308,4.216041893867022e-06,0.1855902777777778
1.382542633622068,0.6718289028221625,3.592094729907337e-06,0.1963541666666667
1.226732372718197,0.5542430112476757,4.529622556349546e-06,0.1652777777777778
0.3603418443798259,0.5541526697086568,1.473721512529879e-05,0.1609375
1.394600891893777,0.6537926515500645,3.741547997606537e-06,0.1743055555555555
1.485714547716114,0.6758353926554977,3.488605558416077e-06,0.2011284722222222
1.263875299857586,0.6072487120677029,4.233309076265095e-06,0.1697048611111111
1.251225796366986,0.576541032399608,4.357366013345088e-06,0.1584201388888889
1.277368395222726,0.6120449615503827,4.320066734553523e-06,0.1504340277777778
1.374639933498909,0.6099959296024231,3.643591134747584e-06,0.1597222222222222
1.389900225446736,0.6528334303287466,3.700633020424352e-06,0.1588541666666667
0.8555451982216243,0.4608709331426,6.89362822465557e-06,0.1526909722222222
0.8849949626434289,0.4715595990251777,6.927477877530412e-06,0.1448784722222222
0.6168744199810139,0.4050470660093675,1.081297496585834e-05,0.1180555555555556
0.6488990321798174,0.4184385185651522,1.1718858637348e-05,0.1152777777777778
0.5472903410652528,0.3740192731000414,1.433542921402398e-05,0.1263020833333333
0.6060834228591561,0.3903242700714185,1.270154179451426e-05,0.1236979166666667
0.5318891472523712,0.3743477981186956,1.47411435739789e-05,0.1210069444444444
0.6957259467096326,0.4226442323129494,1.315460658980094e-05,0.1244791666666667
0.7311522925246192,0.4168245768669766,1.146796722740757e-05,0.1286458333333333
0.7696707176987276,0.4826241841429128,1.011911959850359e-05,0.1412326388888889
0.7895573386599705,0.4381708100452557,1.171690166045427e-05,0.1332465277777778
0.8021898433339706,0.4583399808298261,1.099176795532656e-05,0.1348090277777778
0.9399308223922418,0.5169676618305686,1.00897318459766e-05,0.1355034722222222
1.164755596374762,0.6324243280999315,7.886672233476143e-06,0.1847222222222222
1.268419209531808,0.662824786326345,7.255993914847943e-06,0.1831597222222222
1.144741203380301,0.6173599453668084,8.098583066925172e-06,0.1674479166666667
1.191607905069934,0.6403697141227317,8.21998696042717e-06,0.1666666666666667
1.283586321731297,0.7128042666523062,7.213586973022997e-06,0.1705729166666667
1.270795444042863,0.720257414077011,7.663581204494753e-06,0.1824652777777778
1.249457050961291,0.6958677233747093,7.782387008471022e-06,0.1609375
1.222144779745689,0.7042481934303544,8.433551903564728e-06,0.1611111111111111
1.310419855643148,0.7518680639639085,7.847390899591934e-06,0.1684895833333333
1.180928958760362,0.7264488315206284,9.032556717989284e-06,0.1576388888888889
1.145433272677337,0.707978349005463,9.310917263234051e-06,0.1474826388888889
1.211482228676764,0.7183013176094524,8.848852334449051e-06,0.1677951388888889
1.182813937969156,0.7180183678762267,8.657497006843433e-06,0.1604166666666667
1.167275605765746,0.7170829985463826,8.93735546374273e-06,0.1517361111111111
1.158825644303719,0.7261585705127883,8.0680318881091e-06,0.1636284722222222
0.3703828109750605,0.5088395420755248,1.697508227154713e-05,0.1486979166666667
1.06434744771985,0.5509769060502513,5.861499950031338e-06,0.1289930555555556
1.035327127762239,0.5614600497893529,6.480445528786113e-06,0.1486979166666667
1.335584197569446,0.7393365820556573,4.594471502078413e-06,0.1863715277777778
0.6410559737028187,0.4331478970961405,1.176236951369022e-05,0.1215277777777778
0.6602997903940561,0.4404345857844997,1.184030017978989e-05,0.1164930555555556
0.5256066928462975,0.5046054482867685,1.51362880094125e-05,0.1136284722222222
0.5268302285299304,0.5400077881975216,1.236467952160147e-05,0.08706597222222222
0.563473434350002,0.47836210147242,1.309123505138695e-05,0.09522569444444444
0.4952080315886538,0.4930577949602732,1.375144734966831e-05,0.09583333333333334
0.6333151782490625,0.421239853860077,1.157646342206604e-05,0.1169270833333333
0.7059624884107424,0.4792604191326443,1.200070301989751e-05,0.1435763888888889
0.8786036399157974,0.491928662419657,9.503984721320344e-06,0.1559027777777778
0.9413558578204251,0.5292406742780332,8.087680490492903e-06,0.1802083333333333
0.7168181157415028,0.4264909405132092,1.321502726703764e-05,0.1276909722222222
0.7584238424507389,0.4457830525631186,1.243088521395349e-05,0.1362847222222222
0.8024768872460741,0.5000924716328076,1.032207423114264e-05,0.14140625
0.7017381027469132,0.4554866636641439,1.261522757660019e-05,0.1399305555555556
0.8620596944869696,0.4864311012577475,1.023249050674023e-05,0.1565104166666667
0.993172524593224,0.5565848283502998,9.093962521221398e-06,0.1596354166666667
1.164374127132751,0.6600144695444684,7.277216633686923e-06,0.1825520833333333
1.222322702196623,0.6379476507552722,7.140713123831736e-06,0.1974826388888889
1.249343186744147,0.6693221063528935,6.989517261595277e-06,0.1879340277777778
0.6629762306783737,0.4629307918388307,1.542379108944689e-05,0.1627604166666667
0.6730984872572985,0.4513575066743352,1.574180610367172e-05,0.1486979166666667
1.158214151341663,0.6482909645175005,8.439667501430817e-06,0.1606770833333333
1.069158378787777,0.6619786055074902,9.411018372391047e-06,0.1440972222222222
1.159552421132176,0.7052679759758648,8.882902825768945e-06,0.1651909722222222
1.148709055475026,0.7052583873304417,9.18743890619165e-06,0.1559027777777778
1.204919155829975,0.7102624626012737,8.646136466663009e-06,0.1731770833333333
1.082146026161186,0.7002632487397797,9.55937669657314e-06,0.1446180555555556
1.175811834438435,0.7006558514945291,8.627938148785792e-06,0.1631944444444444
1.09777337833417,0.6852867603377437,9.709131072399785e-06,0.1465277777777778
1.150922251295731,0.6956766835795533,9.523021319959373e-06,0.1513020833333333
1.065086358597397,0.6820796209204544,1.027579806623756e-05,0.1404513888888889
1.116302646874337,0.6898325607892604,1.046283035437222e-05,0.1500868055555556
1.132751373297998,0.7026806295131126,1.004422307809241e-05,0.1456597222222222
1.132234697900859,0.6974202525603984,1.01506211923834e-05,0.1497395833333333
1.048671682077199,0.6731762142284389,1.174181654220627e-05,0.1336805555555556
1.093112475114004,0.6953700876923476,1.074599656096402e-05,0.1477430555555556
1.014619314466366,0.6807115254631642,1.126290395703761e-05,0.1243055555555556
0.9969173135215756,0.6659188936873026,1.168662922679027e-05,0.1261284722222222
0.9104884502372589,0.678245164784203,1.268272772202595e-05,0.1171006944444444
0.9885383952097622,0.679895114451234,1.145247731539892e-05,0.1289930555555556
0.8915030783730363,0.6698447909864644,1.230123768929848e-05,0.1280381944444444
1.18327566710444,0.7626730503077942,5.273266736810362e-06,0.1864583333333333
0.7119637944186783,0.5326608819788602,1.018409118163135e-05,0.1513020833333333
0.2586745903779062,0.376581894485108,1.974838611022722e-05,0.10078125
1.090388084919427,0.5501303676490948,5.750455332797163e-06,0.1605034722222222
1.208998412899925,0.7302257098800603,4.922998138945145e-06,0.1716145833333333
0.9451146875571225,0.5877939349702773,6.903683042702151e-06,0.1571180555555556
1.220650596362736,0.7187723953541928,5.485354207408262e-06,0.2022569444444444
0.6864337456378418,0.4463324065882243,1.05043388184836e-05,0.1746527777777778
1.149586823791288,0.6801020493705213,6.500978394609056e-06,0.2214409722222222
1.131044813904166,0.7332930790777187,5.03587084644482e-06,0.1943576388888889
1.536439065415177,0.8255898425550878,2.91120692901014e-06,0.2143229166666667
1.600839625060145,0.8341101832071869,2.744440263535063e-06,0.2315972222222222
0.9277455828793639,0.5084136145983963,5.77027794575071e-06,0.2032986111111111
0.7675178143326168,0.432942543334714,7.871984013669741e-06,0.1641493055555556
0.7578613691201341,0.4171097288719735,7.622196864717748e-06,0.1778645833333333
1.440805078010332,0.7793064452455521,3.429476462111394e-06,0.1859375
1.395496054512219,0.7141298658754809,3.682219849039903e-06,0.1986111111111111
0.4045138435940603,0.4381750804563829,1.415690885771376e-05,0.1944444444444444
0.2895974482468127,0.5287672168216971,1.994610536271879e-05,0.1334201388888889
0.8096175332331843,0.462874561081758,8.282488197119395e-06,0.1546006944444444
0.7481772312696638,0.4378328500403529,9.13039510575534e-06,0.15546875
0.7627647205364022,0.4581128715904381,8.816445044473831e-06,0.19765625
0.5483507864115417,0.4019165388663172,1.326891616847919e-05,0.1655381944444445
0.3797766986927337,0.3475537043709392,2.096215883407797e-05,0.07690972222222223
0.4003121983283938,0.3735022472914419,1.839787258813109e-05,0.1036458333333333
0.4536736836250052,0.3917106718643526,1.931207874885646e-05,0.1167534722222222
0.3659416716403346,0.3932408621713239,2.043390029897203e-05,0.07291666666666667
0.4454956299882012,0.3607084318650215,1.996731583693222e-05,0.08289930555555555
0.6539903421317136,0.400703567110231,1.314190373344406e-05,0.1175347222222222
0.9412603449950756,0.4739706077364577,9.346960592923903e-06,0.1699652777777778
0.934097407687644,0.5100543732177847,8.827357040648485e-06,0.1582465277777778
1.001742805860492,0.5165144000256462,8.832500513504563e-06,0.1711805555555556
1.026377496794701,0.5324626093906516,7.442320953419154e-06,0.1733506944444445
1.099521316823052,0.5817595908392232,7.717673642516756e-06,0.1786458333333333
1.172943390961426,0.6148794629356359,7.755343817092475e-06,0.1805555555555556
1.238052251082681,0.7000199424752139,6.578806650523622e-06,0.1978298611111111
1.353078433353455,0.6644912684857986,6.637549750173929e-06,0.2026041666666667
1.044607335589205,0.6291305038276929,9.099591764273765e-06,0.1664930555555555
0.9747890633195052,0.6182590919429714,8.65622817265512e-06,0.1802083333333333
1.132975446882065,0.5659494543987514,7.738980265353552e-06,0.1541666666666667
0.6426919714917078,0.505288231375418,1.551706486523345e-05,0.15546875
0.4244799953501373,0.4391790090062665,1.276021418902969e-05,0.08914930555555556
0.7749112264345223,0.4201372299548849,8.381176210878118e-06,0.09184027777777778
0.8078707558101432,0.5110347407305765,8.455569623735167e-06,0.1131944444444444
0.920050571634196,0.5559639865180633,8.098610009956408e-06,0.1666666666666667
0.9075761113305723,0.5467245816341579,8.368762086296296e-06,0.1747395833333333
0.9590677219744546,0.548860661394929,8.738074322639216e-06,0.1755208333333333
0.8446384270590725,0.4903351796845644,9.527296727472776e-06,0.1322048611111111
0.9965922346150821,0.5233561320765603,8.169352874311933e-06,0.1480034722222222
1.180262689299858,0.5990643337241934,6.88706997858643e-06,0.1747395833333333
1.169527248079732,0.5828528771567436,7.570202471178645e-06,0.1750868055555556
1.299723470683938,0.6771039409554547,6.243490294158176e-06,0.1865451388888889
1.191599805695646,0.6480712624200905,7.410261827317121e-06,0.1670138888888889
1.151774649258307,0.6752516275247119,7.685365676215393e-06,0.16171875
1.147316340435267,0.6401514091774237,7.846030673927261e-06,0.1598958333333333
1.250707248658863,0.7031584118861897,7.911300345089773e-06,0.1701388888888889
1.233108778093791,0.6801860110510014,8.012960027852957e-06,0.1676215277777778
1.147761886686126,0.696950169332075,8.500525230647359e-06,0.1651909722222222
1.058586670178378,0.6727080622338224,9.550823910689096e-06,0.14296875
1.039284975769774,0.6780684478907031,9.525058885326558e-06,0.1335069444444444
1.084410068907052,0.659743616506572,9.45051551262093e-06,0.1385416666666667
1.138967676297793,0.7078066290085955,9.078483937217216e-06,0.1473090277777778
1.119730166917684,0.706931984498184,9.682592429120285e-06,0.1443576388888889
1.000232795849296,0.678276922014249,1.022959100761799e-05,0.1280381944444444
1.029433729532475,0.6819838523626431,1.025356751469545e-05,0.1254340277777778
0.9691210501583187,0.6764005322692219,1.14868257326186e-05,0.1196180555555556
1.111053363584657,0.7046372282540093,1.024260368554985e-05,0.1459201388888889
0.995333836903,0.6696295172033864,1.103619310356132e-05,0.1229166666666667
0.985311372444361,0.6775643752318987,1.10201431765877e-05,0.1246527777777778
1.01496463500694,0.681162628790301,1.111169595197717e-05,0.1229166666666667
0.8786458270201498,0.6702017311446944,1.229350786895014e-05,0.1157986111111111
1.078845000640693,0.6896368238505975,1.047262001516523e-05,0.1298611111111111
1.0074911282721,0.6801617947533762,1.142881868109541e-05,0.1181423611111111
0.9390910012078366,0.6691393548582235,1.205151527608255e-05,0.1092013888888889
0.8921089275153874,0.6647715120471812,1.269236247186116e-05,0.11328125
0.9164640373911542,0.6711027033499978,1.226539600698593e-05,0.1184895833333333
0.9251119117911626,0.6565414103247507,1.199101827081365e-05,0.11640625
0.9801460943308397,0.6657787005552657,1.129551827168982e-05,0.1184895833333333
0.9889371058325757,0.6610895979778983,1.162399854711756e-05,0.1193576388888889
0.9109094872923892,0.6497147063109893,1.244438990145683e-05,0.1097222222222222
0.9251311137956832,0.6512955942465909,1.218835859111178e-05,0.1118923611111111
0.9544230028287869,0.6715874428171851,1.173350762172827e-05,0.1138888888888889
0.9588925308386712,0.666605531796709,1.157071746761011e-05,0.1182291666666667
0.9554663124716264,0.6580833555061486,1.18898314428542e-05,0.1211805555555556
0.935123549018586,0.671473613891534,1.180982355496781e-05,0.1087673611111111
0.9410793333503982,0.6571926425119682,1.211007784389796e-05,0.1123263888888889
0.9323177891559579,0.6566010195153755,1.243359220800985e-05,0.1118055555555556
0.897438576216901,0.6524140718106108,1.286585720112306e-05,0.1006944444444444
0.8065662265914976,0.6519969477769854,1.468010116191439e-05,0.1003472222222222
0.863285741005264,0.656461811425361,1.313665438605835e-05,0.1026909722222222
0.871119588759619,0.6525129017467495,1.282157308484011e-05,0.1096354166666667
0.9595505016824218,0.6949936064637816,6.454424787300456e-06,0.1664930555555555
1.030091211443893,0.6505280268941015,5.860564550230904e-06,0.1595486111111111
0.1499311049699508,0.4439171177756661,3.852423275059428e-05,0.07682291666666667
1.148560403311433,0.6379651915930781,4.953471926315899e-06,0.1419270833333333
1.157621150246825,0.6091932475450242,5.036193664579169e-06,0.1581597222222222
1.516417815328946,0.7910464173639253,3.48589872051171e-06,0.19296875
1.379282187618049,0.7542279234189201,4.174751491023495e-06,0.1838541666666667
1.442767230414988,0.8100739844463002,4.17856973800538e-06,0.2103298611111111
1.394115365388217,0.812348416992332,4.410756534119552e-06,0.2072048611111111
1.39673120650389,0.7903051895452761,3.936856133421459e-06,0.2008680555555556
1.065810728648412,0.6001310037326896,4.987090635350893e-06,0.1740451388888889
1.562352736032139,0.8253386575928278,2.888961376336368e-06,0.2151909722222222
1.472611231714404,0.7801919641354768,3.300507781055362e-06,0.1984375
1.464081382417215,0.7778709658483365,3.382163078165712e-06,0.2004340277777778
1.58593848757788,0.8287341172526483,2.942694027896256e-06,0.2230902777777778
1.525096764000349,0.8068771229779709,3.111218683782294e-06,0.2104166666666667
1.480711571473357,0.7961042882661036,3.249308062323232e-06,0.1979166666666667
1.530730627003613,0.8013247895142876,3.28352773071884e-06,0.1953125
1.612143359469328,0.8422623105097301,2.909013784952572e-06,0.2240451388888889
1.63204691834335,0.8422402274534514,2.826434521857991e-06,0.2324652777777778
1.546336401113821,0.8156421972633034,3.095278033400211e-06,0.2197916666666667
0.6047623703388959,0.5881959972060191,9.241024189610749e-06,0.2000868055555556
0.6098183020243615,0.5931699838050785,1.052365340452155e-05,0.1627604166666667
1.575607833582489,0.8241344999377621,3.163573187449961e-06,0.2315104166666667
